wave,flux
0.601676,0.074790
0.603108,0.076486
0.604550,0.077930
0.606002,0.079064
0.607464,0.079863
0.608936,0.080346
0.610418,0.080571
0.611910,0.080626
0.613412,0.080621
0.614925,0.080666
0.616448,0.080814
0.617982,0.081035
0.619527,0.081229
0.621083,0.081322
0.622649,0.081332
0.624227,0.081360
0.625816,0.081497
0.627416,0.081744
0.629027,0.082034
0.630651,0.082319
0.632285,0.082609
0.633932,0.082941
0.635591,0.083323
0.637261,0.083725
0.638944,0.084115
0.640639,0.084478
0.642347,0.084822
0.644067,0.085159
0.645800,0.085486
0.647546,0.085779
0.649305,0.085986
0.651077,0.086045
0.652862,0.085956
0.654660,0.085846
0.656473,0.085919
0.658299,0.086284
0.660138,0.086855
0.661992,0.087431
0.663860,0.087859
0.665742,0.088105
0.667639,0.088210
0.669551,0.088230
0.671477,0.088207
0.673418,0.088164
0.675375,0.088106
0.677346,0.088035
0.679334,0.087952
0.681337,0.087874
0.683355,0.087828
0.685390,0.087829
0.687441,0.087871
0.689508,0.087925
0.691592,0.087957
0.693692,0.087948
0.695809,0.087903
0.697944,0.087843
0.700096,0.087801
0.702265,0.087806
0.704452,0.087850
0.706657,0.087893
0.708879,0.087883
0.711120,0.087801
0.713380,0.087670
0.715658,0.087557
0.717956,0.087532
0.720272,0.087625
0.722607,0.087806
0.724963,0.088009
0.727337,0.088187
0.729732,0.088326
0.732147,0.088422
0.734583,0.088466
0.737039,0.088472
0.739516,0.088496
0.742014,0.088611
0.744533,0.088842
0.747074,0.089152
0.749637,0.089477
0.752221,0.089767
0.754828,0.089996
0.757458,0.090161
0.760110,0.090270
0.762786,0.090344
0.765484,0.090419
0.768206,0.090532
0.770952,0.090711
0.773722,0.090950
0.776516,0.091217
0.779335,0.091461
0.782178,0.091639
0.785047,0.091733
0.787941,0.091758
0.790860,0.091763
0.793805,0.091805
0.796777,0.091905
0.799775,0.092040
0.802799,0.092170
0.805850,0.092268
0.808929,0.092320
0.812035,0.092314
0.815168,0.092255
0.818330,0.092188
0.821520,0.092166
0.824739,0.092206
0.827986,0.092272
0.831262,0.092318
0.834568,0.092302
0.837903,0.092168
0.841269,0.091848
0.844664,0.091327
0.848090,0.090719
0.851547,0.090241
0.855034,0.090053
0.858553,0.090143
0.862103,0.090408
0.865686,0.090783
0.869300,0.091261
0.872946,0.091812
0.876625,0.092353
0.880337,0.092819
0.884082,0.093195
0.887860,0.093486
0.891672,0.093680
0.895517,0.093773
0.899396,0.093794
0.903310,0.093790
0.907258,0.093781
0.911241,0.093749
0.915259,0.093675
0.919311,0.093588
0.923399,0.093546
0.927523,0.093572
0.931682,0.093623
0.935877,0.093642
0.940109,0.093614
0.944376,0.093565
0.948680,0.093525
0.953020,0.093511
0.957397,0.093532
0.961810,0.093598
0.966261,0.093702
0.970749,0.093830
0.975273,0.093966
0.979835,0.094099
0.984435,0.094217
0.989071,0.094302
0.993745,0.094338
0.998457,0.094330
1.003206,0.094318
1.007992,0.094347
1.012817,0.094439
1.017678,0.094581
1.022578,0.094737
1.027514,0.094876
1.032488,0.094985
1.037500,0.095075
1.042549,0.095153
1.047635,0.095210
1.052758,0.095238
1.057919,0.095267
1.063116,0.095377
1.068350,0.095639
1.073620,0.095997
1.078927,0.096246
1.084271,0.096186
1.089650,0.095820
1.095065,0.095373
1.100516,0.095087
1.106001,0.095039
1.111522,0.095141
1.117078,0.095271
1.122668,0.095374
1.128293,0.095467
1.133951,0.095589
1.139643,0.095755
1.145368,0.095933
1.151125,0.096073
1.156915,0.096146
1.162737,0.096163
1.168591,0.096146
1.174476,0.096114
1.180391,0.096069
1.186337,0.096024
1.192313,0.096005
1.198318,0.096054
1.204351,0.096207
1.210414,0.096457
1.216504,0.096749
1.222621,0.097006
1.228766,0.097183
1.234936,0.097277
1.241132,0.097309
1.247354,0.097299
1.253600,0.097246
1.259871,0.097134
1.266165,0.096959
1.272482,0.096760
1.278821,0.096623
1.285182,0.096625
1.291565,0.096768
1.297968,0.096976
1.304391,0.097165
1.310834,0.097303
1.317295,0.097411
1.323775,0.097523
1.330272,0.097648
1.336787,0.097778
1.343318,0.097893
1.349865,0.097985
1.356428,0.098063
1.363005,0.098157
1.369596,0.098288
1.376201,0.098455
1.382819,0.098630
1.389449,0.098775
1.396091,0.098860
1.402744,0.098883
1.409409,0.098860
1.416083,0.098828
1.422766,0.098823
1.429459,0.098872
1.436160,0.098981
1.442870,0.099136
1.449586,0.099312
1.456310,0.099483
1.463040,0.099620
1.469776,0.099718
1.476517,0.099786
1.483263,0.099844
1.490014,0.099913
1.496768,0.100012
1.503526,0.100167
1.510287,0.100383
1.517050,0.100623
1.523816,0.100823
1.530583,0.100924
1.537351,0.100894
1.544120,0.100725
1.550890,0.100411
1.557660,0.099950
1.564429,0.099366
1.571197,0.098715
1.577965,0.098085
1.584730,0.097563
1.591494,0.097176
1.598256,0.096886
1.605015,0.096624
1.611771,0.096338
1.618524,0.096003
1.625274,0.095600
1.632019,0.095140
1.638761,0.094672
1.645498,0.094256
1.652230,0.093891
1.658957,0.093512
1.665679,0.093070
1.672396,0.092601
1.679106,0.092206
1.685811,0.091952
1.692509,0.091805
1.699201,0.091662
1.705886,0.091431
1.712564,0.091078
1.719235,0.090626
1.725899,0.090149
1.732555,0.089753
1.739204,0.089522
1.745844,0.089462
1.752476,0.089490
1.759100,0.089495
1.765716,0.089404
1.772323,0.089203
1.778921,0.088911
1.785511,0.088541
1.792091,0.088084
1.798662,0.087528
1.805224,0.086894
1.811776,0.086252
1.818319,0.085691
1.824852,0.085256
1.831376,0.084910
1.837889,0.084569
1.844393,0.084159
1.850886,0.083642
1.857369,0.083019
1.863842,0.082341
1.870305,0.081708
1.876757,0.081222
1.883198,0.080928
1.889629,0.080788
1.896049,0.080726
1.902459,0.080667
1.908858,0.080550
1.915245,0.080332
1.921622,0.079994
1.927988,0.079560
1.934343,0.079102
1.940687,0.078724
1.947020,0.078508
1.953341,0.078457
1.959652,0.078496
1.965951,0.078534
1.972239,0.078529
1.978516,0.078494
1.984781,0.078458
1.991035,0.078438
1.997277,0.078429
2.003509,0.078411
2.009728,0.078362
2.015937,0.078272
2.022134,0.078153
2.028319,0.078028
2.034493,0.077920
2.040656,0.077827
2.046807,0.077731
2.052946,0.077613
2.059074,0.077469
2.065191,0.077305
2.071296,0.077128
2.077389,0.076937
2.083471,0.076729
2.089542,0.076510
2.095601,0.076290
2.101649,0.076067
2.107685,0.075836
2.113710,0.075590
2.119723,0.075335
2.125725,0.075079
2.131715,0.074819
2.137694,0.074538
2.143661,0.074211
2.149618,0.073825
2.155562,0.073397
2.161496,0.072985
2.167418,0.072653
2.173329,0.072436
2.179228,0.072305
2.185117,0.072201
2.190994,0.072078
2.196859,0.071915
2.202714,0.071723
2.208557,0.071520
2.214390,0.071323
2.220211,0.071130
2.226021,0.070935
2.231820,0.070733
2.237608,0.070522
2.243384,0.070308
2.249150,0.070094
2.254905,0.069891
2.260649,0.069691
2.266382,0.069496
2.272104,0.069294
2.277816,0.069080
2.283516,0.068857
2.289206,0.068633
2.294885,0.068418
2.300553,0.068211
2.306210,0.067999
2.311857,0.067770
2.317493,0.067525
2.323119,0.067280
2.328734,0.067052
2.334339,0.066840
2.339933,0.066628
2.345516,0.066402
2.351089,0.066156
2.356652,0.065909
2.362204,0.065661
2.367746,0.065410
2.373278,0.065147
2.378799,0.064879
2.384310,0.064622
2.389811,0.064386
2.395302,0.064162
2.400783,0.063928
2.406254,0.063671
2.411714,0.063395
2.417165,0.063122
2.422605,0.062865
2.428036,0.062619
2.433456,0.062371
2.438867,0.062107
2.444268,0.061831
2.449659,0.061560
2.455041,0.061304
2.460412,0.061063
2.465774,0.060823
2.471126,0.060574
2.476469,0.060319
2.481802,0.060072
2.487126,0.059844
2.492440,0.059631
2.497744,0.059418
2.503039,0.059195
2.508325,0.058961
2.513601,0.058723
2.518868,0.058486
2.524125,0.058246
2.529373,0.057999
2.534612,0.057744
2.539842,0.057488
2.545063,0.057242
2.550274,0.057014
2.555476,0.056806
2.560670,0.056615
2.565854,0.056438
2.571029,0.056270
2.576195,0.056111
2.581353,0.055967
2.586501,0.055850
2.591641,0.055765
2.596771,0.055708
2.601893,0.055666
2.607007,0.055624
2.612111,0.055577
2.617207,0.055534
2.622294,0.055518
2.627372,0.055545
2.632442,0.055616
2.637503,0.055710
2.642556,0.055803
2.647600,0.055882
2.652636,0.055941
2.657663,0.055982
2.662682,0.056011
2.667693,0.056030
2.672695,0.056037
2.677689,0.056025
2.682675,0.055983
2.687652,0.055909
2.692621,0.055805
2.697582,0.055676
2.702535,0.055526
2.707480,0.055361
2.712417,0.055184
2.717346,0.054998
2.722266,0.054806
2.727179,0.054612
2.732084,0.054417
2.736980,0.054224
2.741869,0.054032
2.746750,0.053845
2.751623,0.053667
2.756489,0.053505
2.761346,0.053365
2.766196,0.053250
2.771038,0.053153
2.775873,0.053071
2.780700,0.052999
2.785519,0.052935
2.790330,0.052876
2.795134,0.052820
2.799931,0.052766
2.804720,0.052713
2.809501,0.052659
2.814275,0.052604
2.819042,0.052544
2.823801,0.052478
2.828553,0.052401
2.833297,0.052320
2.838034,0.052224
2.842764,0.052120
2.847487,0.052004
2.852202,0.051880
2.856911,0.051748
2.861612,0.051608
2.866305,0.051463
2.870992,0.051316
2.875672,0.051170
2.880344,0.051024
2.885010,0.050879
2.889669,0.050733
2.894320,0.050587
2.898965,0.050443
2.903602,0.050300
2.908233,0.050165
2.912857,0.050032
2.917474,0.049909
2.922084,0.049790
2.926688,0.049679
2.931284,0.049574
2.935874,0.049477
2.940457,0.049387
2.945033,0.049304
2.949603,0.049229
2.954166,0.049161
2.958723,0.049102
2.963272,0.049050
2.967816,0.049006
2.972352,0.048971
2.976882,0.048943
2.981406,0.048927
2.985923,0.048915
2.990434,0.048918
2.994938,0.048923
2.999436,0.048934
3.003927,0.048949
3.008412,0.048967
3.012891,0.048987
3.017363,0.049009
3.021829,0.049032
3.026289,0.049054
3.030743,0.049075
3.035190,0.049092
3.039631,0.049102
3.044066,0.049102
3.048495,0.049091
3.052917,0.049072
3.057334,0.049046
3.061744,0.049013
3.066149,0.048975
3.070547,0.048934
3.074939,0.048889
3.079325,0.048844
3.083705,0.048800
3.088080,0.048758
3.092448,0.048720
3.096810,0.048688
3.101167,0.048664
3.105517,0.048650
3.109862,0.048647
3.114201,0.048655
3.118534,0.048671
3.122861,0.048700
3.127182,0.048742
3.131498,0.048798
3.135808,0.048867
3.140112,0.048947
3.144410,0.049035
3.148703,0.049128
3.152990,0.049220
3.157272,0.049310
3.161548,0.049395
3.165818,0.049475
3.170082,0.049546
3.174342,0.049606
3.178595,0.049652
3.182843,0.049685
3.187086,0.049701
3.191323,0.049700
3.195554,0.049682
3.199780,0.049646
3.204001,0.049596
3.208216,0.049532
3.212426,0.049458
3.216630,0.049377
3.220829,0.049290
3.225023,0.049200
3.229211,0.049111
3.233394,0.049025
3.237572,0.048943
3.241744,0.048866
3.245912,0.048797
3.250074,0.048739
3.254230,0.048694
3.258382,0.048665
3.262528,0.048655
3.266669,0.048659
3.270805,0.048679
3.274936,0.048713
3.279062,0.048763
3.283183,0.048827
3.287298,0.048904
3.291409,0.048987
3.295514,0.049067
3.299615,0.049139
3.303710,0.049203
3.307800,0.049268
3.311886,0.049340
3.315966,0.049415
3.320042,0.049485
3.324112,0.049541
3.328178,0.049587
3.332238,0.049629
3.336294,0.049672
3.340345,0.049719
3.344391,0.049770
3.348432,0.049822
3.352469,0.049876
3.356500,0.049931
3.360527,0.049988
3.364549,0.050048
3.368566,0.050108
3.372579,0.050167
3.376586,0.050227
3.380589,0.050287
3.384588,0.050364
3.388581,0.050449
3.392570,0.050548
3.396554,0.050649
3.400534,0.050744
3.404509,0.050832
3.408479,0.050913
3.412445,0.050991
3.416406,0.051069
3.420362,0.051146
3.424314,0.051218
3.428262,0.051286
3.432204,0.051348
3.436143,0.051404
3.440077,0.051455
3.444006,0.051496
3.447931,0.051535
3.451851,0.051562
3.455767,0.051587
3.459679,0.051605
3.463586,0.051619
3.467488,0.051630
3.471386,0.051638
3.475280,0.051642
3.479170,0.051645
3.483055,0.051649
3.486936,0.051658
3.490812,0.051672
3.494684,0.051693
3.498552,0.051721
3.502415,0.051760
3.506275,0.051809
3.510130,0.051878
3.513980,0.051958
3.517827,0.052062
3.521669,0.052176
3.525507,0.052302
3.529341,0.052440
3.533170,0.052585
3.536996,0.052736
3.540817,0.052892
3.544634,0.053054
3.548447,0.053225
3.552255,0.053404
3.556060,0.053587
3.559861,0.053809
3.563657,0.053994
3.567449,0.054176
3.571238,0.054360
3.575022,0.054543
3.578802,0.054725
3.582578,0.054902
3.586350,0.055076
3.590118,0.055244
3.593882,0.055406
3.597642,0.055562
3.601398,0.055708
3.605151,0.055844
3.608899,0.055973
3.612643,0.056093
3.616383,0.056206
3.620120,0.056311
3.623852,0.056407
3.627580,0.056491
3.631305,0.056564
3.635026,0.056627
3.638743,0.056683
3.642456,0.056733
3.646165,0.056778
3.649870,0.056816
3.653572,0.056845
3.657269,0.056867
3.660963,0.056886
3.664653,0.056911
3.668340,0.056951
3.672022,0.057009
3.675701,0.057083
3.679376,0.057167
3.683047,0.057260
3.686715,0.057368
3.690378,0.057504
3.694038,0.057671
3.697695,0.057857
3.701347,0.058047
3.704996,0.058231
3.708642,0.058411
3.712283,0.058595
3.715921,0.058789
3.719556,0.059002
3.723186,0.059239
3.726814,0.059510
3.730437,0.059817
3.734057,0.060154
3.737673,0.060497
3.741286,0.060822
3.744895,0.061111
3.748501,0.061364
3.752103,0.061598
3.755701,0.061827
3.759296,0.062064
3.762887,0.062312
3.766475,0.062572
3.770060,0.062843
3.773640,0.063118
3.777218,0.063390
3.780792,0.063657
3.784362,0.063916
3.787929,0.064171
3.791493,0.064418
3.795053,0.064658
3.798609,0.064890
3.802162,0.065115
3.805712,0.065333
3.809259,0.065548
3.812801,0.065756
3.816341,0.065955
3.819877,0.066148
3.823410,0.066338
3.826939,0.066530
3.830466,0.066725
3.833988,0.066921
3.837508,0.067117
3.841024,0.067312
3.844537,0.067510
3.848046,0.067715
3.851552,0.067932
3.855055,0.068157
3.858554,0.068399
3.862051,0.068641
3.865544,0.068892
3.869033,0.069141
3.872520,0.069396
3.876003,0.069662
3.879483,0.069941
3.882960,0.070233
3.886433,0.070535
3.889904,0.070844
3.893371,0.071163
3.896835,0.071490
3.900295,0.071828
3.903753,0.072176
3.907207,0.072538
3.910659,0.072912
3.914107,0.073308
3.917551,0.073710
3.920993,0.074132
3.924432,0.074557
3.927867,0.074990
3.931300,0.075427
3.934729,0.075866
3.938155,0.076306
3.941578,0.076745
3.944998,0.077182
3.948415,0.077612
3.951829,0.078027
3.955239,0.078423
3.958647,0.078794
3.962052,0.079143
3.965453,0.079468
3.968852,0.079777
3.972247,0.080059
3.975640,0.080337
3.979029,0.080594
3.982416,0.080838
3.985799,0.081068
3.989180,0.081285
3.992557,0.081487
3.995932,0.081675
3.999303,0.081853
4.002672,0.082028
4.006037,0.082210
4.009400,0.082404
4.012760,0.082612
4.016116,0.082828
4.019470,0.083050
4.022821,0.083283
4.026169,0.083532
4.029514,0.083799
4.032856,0.084088
4.036196,0.084398
4.039532,0.084729
4.042866,0.085080
4.046196,0.085441
4.049524,0.085803
4.052849,0.086155
4.056171,0.086494
4.059490,0.086828
4.062807,0.087164
4.066120,0.087505
4.069431,0.087847
4.072739,0.088188
4.076044,0.088530
4.079346,0.088871
4.082646,0.089212
4.085942,0.089551
4.089236,0.089887
4.092527,0.090219
4.095815,0.090550
4.099101,0.090882
4.102384,0.091220
4.105664,0.091563
4.108941,0.091911
4.112216,0.092263
4.115487,0.092620
4.118756,0.092984
4.122023,0.093356
4.125286,0.093740
4.128547,0.094135
4.131805,0.094543
4.135061,0.094964
4.138314,0.095398
4.141564,0.095847
4.144811,0.096311
4.148056,0.096791
4.151298,0.097286
4.154537,0.097799
4.157774,0.098331
4.161008,0.098884
4.164239,0.099461
4.167468,0.100060
4.170694,0.100683
4.173918,0.101330
4.177139,0.102001
4.180357,0.102697
4.183573,0.103420
4.186786,0.104162
4.189996,0.104919
4.193204,0.105689
4.196409,0.106467
4.199612,0.107248
4.202812,0.108029
4.206009,0.108807
4.209204,0.109578
4.212397,0.110339
4.215587,0.111086
4.218774,0.111813
4.221959,0.112517
4.225141,0.113192
4.228320,0.113837
4.231497,0.114442
4.234672,0.115018
4.237844,0.115558
4.241014,0.116069
4.244181,0.116553
4.247345,0.117016
4.250507,0.117458
4.253667,0.117882
4.256824,0.118290
4.259979,0.118682
4.263131,0.119063
4.266280,0.119435
4.269427,0.119801
4.272572,0.120162
4.275714,0.120514
4.278854,0.120874
4.281992,0.121217
4.285127,0.121554
4.288259,0.121864
4.291389,0.122154
4.294517,0.122441
4.297642,0.122752
4.300765,0.123105
4.303885,0.123503
4.307003,0.123931
4.310119,0.124374
4.313232,0.124822
4.316343,0.125275
4.319451,0.125733
4.322557,0.126200
4.325661,0.126673
4.328762,0.127166
4.331861,0.127659
4.334958,0.128173
4.338052,0.128677
4.341144,0.129162
4.344233,0.129619
4.347321,0.130052
4.350405,0.130494
4.353488,0.130980
4.356568,0.131532
4.359646,0.132142
4.362722,0.132790
4.365795,0.133457
4.368866,0.134137
4.371934,0.134828
4.375001,0.135528
4.378065,0.136244
4.381126,0.136965
4.384186,0.137691
4.387243,0.138418
4.390298,0.139141
4.393351,0.139850
4.396401,0.140530
4.399449,0.141169
4.402495,0.141768
4.405539,0.142351
4.408580,0.142961
4.411619,0.143637
4.414656,0.144390
4.417691,0.145200
4.420723,0.146038
4.423753,0.146879
4.426781,0.147712
4.429807,0.148525
4.432831,0.149318
4.435852,0.150096
4.438871,0.150858
4.441888,0.151607
4.444903,0.152338
4.447915,0.153051
4.450926,0.153742
4.453934,0.154398
4.456940,0.154996
4.459944,0.155518
4.462945,0.155970
4.465945,0.156393
4.468942,0.156840
4.471937,0.157342
4.474930,0.157898
4.477921,0.158478
4.480910,0.159050
4.483897,0.159589
4.486881,0.160082
4.489863,0.160537
4.492844,0.160977
4.495822,0.161421
4.498798,0.161869
4.501772,0.162309
4.504743,0.162738
4.507713,0.163168
4.510680,0.163613
4.513646,0.164067
4.516609,0.164505
4.519570,0.164911
4.522530,0.165308
4.525487,0.165760
4.528442,0.166331
4.531395,0.167043
4.534345,0.167867
4.537294,0.168743
4.540241,0.169625
4.543186,0.170501
4.546128,0.171392
4.549069,0.172325
4.552007,0.173310
4.554944,0.174328
4.557878,0.175347
4.560810,0.176346
4.563741,0.177329
4.566669,0.178324
4.569595,0.179348
4.572520,0.180393
4.575442,0.181413
4.578362,0.182377
4.581280,0.183283
4.584197,0.184168
4.587111,0.185085
4.590023,0.186066
4.592933,0.187106
4.595842,0.188171
4.598748,0.189220
4.601652,0.190220
4.604554,0.191155
4.607455,0.192016
4.610353,0.192798
4.613249,0.193504
4.616144,0.194132
4.619036,0.194713
4.621927,0.195256
4.624815,0.195774
4.627702,0.196262
4.630586,0.196702
4.633469,0.197078
4.636350,0.197389
4.639229,0.197647
4.642105,0.197871
4.644980,0.198089
4.647853,0.198351
4.650724,0.198721
4.653594,0.199249
4.656461,0.199932
4.659326,0.200764
4.662190,0.201676
4.665051,0.202661
4.667911,0.203681
4.670768,0.204736
4.673624,0.205818
4.676478,0.206930
4.679330,0.208085
4.682180,0.209291
4.685029,0.210533
4.687875,0.211778
4.690720,0.212997
4.693562,0.214182
4.696403,0.215342
4.699242,0.216488
4.702079,0.217604
4.704914,0.218675
4.707747,0.219651
4.710579,0.220581
4.713408,0.221489
4.716236,0.222443
4.719062,0.223462
4.721886,0.224506
4.724708,0.225499
4.727529,0.226387
4.730347,0.227171
4.733164,0.227899
4.735979,0.228627
4.738792,0.229385
4.741604,0.230166
4.744413,0.230944
4.747221,0.231692
4.750027,0.232420
4.752831,0.233137
4.755633,0.233858
4.758433,0.234574
4.761232,0.235269
4.764029,0.235942
4.766824,0.236610
4.769617,0.237284
4.772409,0.237967
4.775199,0.238665
4.777987,0.239396
4.780773,0.240184
4.783557,0.241034
4.786340,0.241930
4.789121,0.242846
4.791900,0.243765
4.794677,0.244703
4.797453,0.245672
4.800226,0.246687
4.802999,0.247762
4.805769,0.248906
4.808538,0.250104
4.811304,0.251334
4.814069,0.252580
4.816833,0.253823
4.819595,0.255044
4.822354,0.256245
4.825113,0.257447
4.827869,0.258658
4.830624,0.259859
4.833377,0.261025
4.836128,0.262130
4.838878,0.263150
4.841626,0.264091
4.844372,0.264993
4.847116,0.265904
4.849859,0.266828
4.852600,0.267755
4.855340,0.268679
4.858077,0.269587
4.860813,0.270458
4.863548,0.271294
4.866280,0.272115
4.869011,0.272924
4.871740,0.273724
4.874468,0.274555
4.877194,0.275462
4.879918,0.276436
4.882641,0.277445
4.885362,0.278483
4.888081,0.279547
4.890799,0.280607
4.893514,0.281622
4.896229,0.282586
4.898941,0.283510
4.901652,0.284382
4.904362,0.285185
4.907069,0.285930
4.909775,0.286652
4.912480,0.287377
4.915183,0.288137
4.917884,0.288964
4.920583,0.289853
4.923281,0.290750
4.925977,0.291607
4.928672,0.292432
4.931365,0.293224
4.934056,0.293989
4.936746,0.294734
4.939434,0.295466
4.942121,0.296196
4.944806,0.296944
4.947489,0.297737
4.950171,0.298570
4.952851,0.299422
4.955530,0.300308
4.958207,0.301285
4.960882,0.302374
4.963556,0.303513
4.966228,0.304705
4.968899,0.305932
4.971568,0.307242
4.974235,0.308557
4.976901,0.309817
4.979565,0.311034
4.982228,0.312259
4.984889,0.313496
4.987549,0.314745
4.990207,0.316066
4.992863,0.317519
4.995518,0.319052
4.998172,0.320549
5.000823,0.321973
5.003474,0.323378
5.006122,0.324782
5.008769,0.326177
5.011415,0.327495
5.014059,0.328814
5.016702,0.330154
5.019343,0.331536
5.021982,0.332935
5.024620,0.334328
5.027256,0.335733
5.029891,0.337209
5.032524,0.338789
5.035156,0.340429
5.037787,0.342050
5.040415,0.343646
5.043043,0.345277
5.045668,0.346943
