wave,flux
0.601676,0.074809
0.603108,0.075511
0.604550,0.076147
0.606002,0.076730
0.607464,0.077268
0.608936,0.077756
0.610418,0.078185
0.611910,0.078551
0.613412,0.078858
0.614925,0.079118
0.616448,0.079355
0.617982,0.079589
0.619527,0.079828
0.621083,0.080066
0.622649,0.080304
0.624227,0.080552
0.625816,0.080838
0.627416,0.081160
0.629027,0.081506
0.630651,0.081859
0.632285,0.082219
0.633932,0.082591
0.635591,0.082978
0.637261,0.083400
0.638944,0.083785
0.640639,0.084154
0.642347,0.084507
0.644067,0.084847
0.645800,0.085173
0.647546,0.085473
0.649305,0.085722
0.651077,0.085885
0.652862,0.085959
0.654660,0.086003
0.656473,0.086134
0.658299,0.086423
0.660138,0.086834
0.661992,0.087259
0.663860,0.087604
0.665742,0.087843
0.667639,0.087993
0.669551,0.088086
0.671477,0.088146
0.673418,0.088186
0.675375,0.088211
0.677346,0.088217
0.679334,0.088208
0.681337,0.088191
0.683355,0.088187
0.685390,0.088209
0.687441,0.088254
0.689508,0.088300
0.691592,0.088323
0.693692,0.088309
0.695809,0.088259
0.697944,0.088192
0.700096,0.088136
0.702265,0.088116
0.704452,0.088127
0.706657,0.088138
0.708879,0.088106
0.711120,0.088011
0.713380,0.087876
0.715658,0.087759
0.717956,0.087725
0.720272,0.087804
0.722607,0.087968
0.724963,0.088161
0.727337,0.088337
0.729732,0.088483
0.732147,0.088594
0.734583,0.088659
0.737039,0.088688
0.739516,0.088738
0.742014,0.088876
0.744533,0.089128
0.747074,0.089460
0.749637,0.089810
0.752221,0.090126
0.754828,0.090383
0.757458,0.090574
0.760110,0.090706
0.762786,0.090803
0.765484,0.090898
0.768206,0.091033
0.770952,0.091236
0.773722,0.091505
0.776516,0.091805
0.779335,0.092085
0.782178,0.092301
0.785047,0.092431
0.787941,0.092491
0.790860,0.092535
0.793805,0.092624
0.796777,0.092781
0.799775,0.092985
0.802799,0.093192
0.805850,0.093370
0.808929,0.093504
0.812035,0.093576
0.815168,0.093592
0.818330,0.093599
0.821520,0.093655
0.824739,0.093776
0.827986,0.093923
0.831262,0.094042
0.834568,0.094084
0.837903,0.093983
0.841269,0.093657
0.844664,0.093087
0.848090,0.092400
0.851547,0.091844
0.855034,0.091602
0.858553,0.091665
0.862103,0.091918
0.865686,0.092289
0.869300,0.092773
0.872946,0.093335
0.876625,0.093882
0.880337,0.094340
0.884082,0.094690
0.887860,0.094939
0.891672,0.095077
0.895517,0.095097
0.899396,0.095036
0.903310,0.094951
0.907258,0.094867
0.911241,0.094764
0.915259,0.094623
0.919311,0.094473
0.923399,0.094390
0.927523,0.094397
0.931682,0.094444
0.935877,0.094462
0.940109,0.094433
0.944376,0.094386
0.948680,0.094358
0.953020,0.094368
0.957397,0.094431
0.961810,0.094554
0.966261,0.094730
0.970749,0.094942
0.975273,0.095170
0.979835,0.095401
0.984435,0.095618
0.989071,0.095798
0.993745,0.095918
0.998457,0.095985
1.003206,0.096044
1.007992,0.096150
1.012817,0.096331
1.017678,0.096566
1.022578,0.096812
1.027514,0.097026
1.032488,0.097193
1.037500,0.097324
1.042549,0.097427
1.047635,0.097496
1.052758,0.097539
1.057919,0.097633
1.063116,0.097943
1.068350,0.098590
1.073620,0.099434
1.078927,0.100030
1.084271,0.099928
1.089650,0.099093
1.095065,0.097956
1.100516,0.097034
1.106001,0.096549
1.111522,0.096405
1.117078,0.096401
1.122668,0.096421
1.128293,0.096461
1.133951,0.096560
1.139643,0.096736
1.145368,0.096949
1.151125,0.097138
1.156915,0.097264
1.162737,0.097335
1.168591,0.097379
1.174476,0.097414
1.180391,0.097442
1.186337,0.097475
1.192313,0.097543
1.198318,0.097695
1.204351,0.097974
1.210414,0.098369
1.216504,0.098807
1.222621,0.099189
1.228766,0.099455
1.234936,0.099598
1.241132,0.099644
1.247354,0.099616
1.253600,0.099515
1.259871,0.099325
1.266165,0.099042
1.272482,0.098718
1.278821,0.098460
1.285182,0.098369
1.291565,0.098448
1.297968,0.098605
1.304391,0.098736
1.310834,0.098805
1.317295,0.098840
1.323775,0.098883
1.330272,0.098952
1.336787,0.099035
1.343318,0.099111
1.349865,0.099168
1.356428,0.099220
1.363005,0.099302
1.369596,0.099439
1.376201,0.099629
1.382819,0.099837
1.389449,0.100014
1.396091,0.100125
1.402744,0.100163
1.409409,0.100152
1.416083,0.100133
1.422766,0.100151
1.429459,0.100240
1.436160,0.100406
1.442870,0.100627
1.449586,0.100878
1.456310,0.101121
1.463040,0.101326
1.469776,0.101484
1.476517,0.101609
1.483263,0.101726
1.490014,0.101859
1.496768,0.102033
1.503526,0.102279
1.510287,0.102603
1.517050,0.102961
1.523816,0.103276
1.530583,0.103476
1.537351,0.103524
1.544120,0.103412
1.550890,0.103130
1.557660,0.102681
1.564429,0.102091
1.571197,0.101425
1.577965,0.100790
1.584730,0.100285
1.591494,0.099942
1.598256,0.099712
1.605015,0.099511
1.611771,0.099278
1.618524,0.098980
1.625274,0.098595
1.632019,0.098133
1.638761,0.097654
1.645498,0.097226
1.652230,0.096845
1.658957,0.096434
1.665679,0.095938
1.672396,0.095398
1.679106,0.094934
1.685811,0.094624
1.692509,0.094429
1.699201,0.094232
1.705886,0.093926
1.712564,0.093475
1.719235,0.092907
1.725899,0.092309
1.732555,0.091801
1.739204,0.091483
1.745844,0.091358
1.752476,0.091332
1.759100,0.091280
1.765716,0.091121
1.772323,0.090840
1.778921,0.090460
1.785511,0.089997
1.792091,0.089441
1.798662,0.088781
1.805224,0.088040
1.811776,0.087297
1.818319,0.086652
1.824852,0.086153
1.831376,0.085758
1.837889,0.085377
1.844393,0.084928
1.850886,0.084371
1.857369,0.083711
1.863842,0.083004
1.870305,0.082358
1.876757,0.081883
1.883198,0.081621
1.889629,0.081531
1.896049,0.081528
1.902459,0.081532
1.908858,0.081478
1.915245,0.081318
1.921622,0.081034
1.927988,0.080650
1.934343,0.080241
1.940687,0.079914
1.947020,0.079748
1.953341,0.079746
1.959652,0.079826
1.965951,0.079895
1.972239,0.079908
1.978516,0.079880
1.984781,0.079841
1.991035,0.079809
1.997277,0.079781
2.003509,0.079738
2.009728,0.079659
2.015937,0.079538
2.022134,0.079385
2.028319,0.079227
2.034493,0.079085
2.040656,0.078959
2.046807,0.078833
2.052946,0.078689
2.059074,0.078524
2.065191,0.078347
2.071296,0.078163
2.077389,0.077973
2.083471,0.077773
2.089542,0.077569
2.095601,0.077367
2.101649,0.077168
2.107685,0.076963
2.113710,0.076749
2.119723,0.076528
2.125725,0.076309
2.131715,0.076087
2.137694,0.075848
2.143661,0.075571
2.149618,0.075244
2.155562,0.074884
2.161496,0.074538
2.167418,0.074260
2.173329,0.074078
2.179228,0.073963
2.185117,0.073868
2.190994,0.073753
2.196859,0.073601
2.202714,0.073422
2.208557,0.073230
2.214390,0.073037
2.220211,0.072844
2.226021,0.072642
2.231820,0.072429
2.237608,0.072203
2.243384,0.071967
2.249150,0.071725
2.254905,0.071482
2.260649,0.071233
2.266382,0.070982
2.272104,0.070720
2.277816,0.070447
2.283516,0.070165
2.289206,0.069884
2.294885,0.069611
2.300553,0.069345
2.306210,0.069082
2.311857,0.068815
2.317493,0.068547
2.323119,0.068289
2.328734,0.068054
2.334339,0.067841
2.339933,0.067643
2.345516,0.067453
2.351089,0.067267
2.356652,0.067099
2.362204,0.066940
2.367746,0.066788
2.373278,0.066636
2.378799,0.066484
2.384310,0.066337
2.389811,0.066198
2.395302,0.066057
2.400783,0.065902
2.406254,0.065723
2.411714,0.065521
2.417165,0.065302
2.422605,0.065070
2.428036,0.064817
2.433456,0.064538
2.438867,0.064224
2.444268,0.063880
2.449659,0.063517
2.455041,0.063142
2.460412,0.062755
2.465774,0.062357
2.471126,0.061947
2.476469,0.061530
2.481802,0.061112
2.487126,0.060701
2.492440,0.060296
2.497744,0.059897
2.503039,0.059506
2.508325,0.059126
2.513601,0.058762
2.518868,0.058418
2.524125,0.058095
2.529373,0.057794
2.534612,0.057513
2.539842,0.057254
2.545063,0.057019
2.550274,0.056806
2.555476,0.056616
2.560670,0.056448
2.565854,0.056300
2.571029,0.056175
2.576195,0.056072
2.581353,0.055991
2.586501,0.055931
2.591641,0.055891
2.596771,0.055871
2.601893,0.055874
2.607007,0.055903
2.612111,0.055956
2.617207,0.056029
2.622294,0.056113
2.627372,0.056196
2.632442,0.056273
2.637503,0.056344
2.642556,0.056411
2.647600,0.056477
2.652636,0.056541
2.657663,0.056599
2.662682,0.056643
2.667693,0.056666
2.672695,0.056665
2.677689,0.056638
2.682675,0.056586
2.687652,0.056513
2.692621,0.056420
2.697582,0.056311
2.702535,0.056185
2.707480,0.056044
2.712417,0.055889
2.717346,0.055723
2.722266,0.055547
2.727179,0.055363
2.732084,0.055174
2.736980,0.054985
2.741869,0.054800
2.746750,0.054623
2.751623,0.054455
2.756489,0.054291
2.761346,0.054127
2.766196,0.053962
2.771038,0.053797
2.775873,0.053637
2.780700,0.053483
2.785519,0.053338
2.790330,0.053202
2.795134,0.053076
2.799931,0.052959
2.804720,0.052850
2.809501,0.052746
2.814275,0.052647
2.819042,0.052553
2.823801,0.052462
2.828553,0.052373
2.833297,0.052296
2.838034,0.052217
2.842764,0.052144
2.847487,0.052071
2.852202,0.052002
2.856911,0.051941
2.861612,0.051887
2.866305,0.051836
2.870992,0.051776
2.875672,0.051700
2.880344,0.051609
2.885010,0.051510
2.889669,0.051412
2.894320,0.051320
2.898965,0.051233
2.903602,0.051147
2.908233,0.051070
2.912857,0.050989
2.917474,0.050914
2.922084,0.050835
2.926688,0.050752
2.931284,0.050664
2.935874,0.050574
2.940457,0.050484
2.945033,0.050393
2.949603,0.050302
2.954166,0.050210
2.958723,0.050118
2.963272,0.050032
2.967816,0.049953
2.972352,0.049882
2.976882,0.049819
2.981406,0.049770
2.985923,0.049722
2.990434,0.049688
2.994938,0.049653
2.999436,0.049617
3.003927,0.049581
3.008412,0.049550
3.012891,0.049529
3.017363,0.049525
3.021829,0.049540
3.026289,0.049575
3.030743,0.049624
3.035190,0.049669
3.039631,0.049694
3.044066,0.049693
3.048495,0.049677
3.052917,0.049668
3.057334,0.049676
3.061744,0.049702
3.066149,0.049738
3.070547,0.049781
3.074939,0.049827
3.079325,0.049878
3.083705,0.049932
3.088080,0.049988
3.092448,0.050044
3.096810,0.050103
3.101167,0.050168
3.105517,0.050240
3.109862,0.050313
3.114201,0.050374
3.118534,0.050412
3.122861,0.050429
3.127182,0.050434
3.131498,0.050440
3.135808,0.050455
3.140112,0.050479
3.144410,0.050507
3.148703,0.050530
3.152990,0.050542
3.157272,0.050540
3.161548,0.050528
3.165818,0.050508
3.170082,0.050479
3.174342,0.050440
3.178595,0.050393
3.182843,0.050340
3.187086,0.050285
3.191323,0.050230
3.195554,0.050174
3.199780,0.050115
3.204001,0.050051
3.208216,0.049983
3.212426,0.049916
3.216630,0.049850
3.220829,0.049790
3.225023,0.049737
3.229211,0.049695
3.233394,0.049666
3.237572,0.049650
3.241744,0.049645
3.245912,0.049651
3.250074,0.049672
3.254230,0.049713
3.258382,0.049778
3.262528,0.049866
3.266669,0.049975
3.270805,0.050102
3.274936,0.050250
3.279062,0.050419
3.283183,0.050609
3.287298,0.050814
3.291409,0.051017
3.295514,0.051193
3.299615,0.051326
3.303710,0.051424
3.307800,0.051510
3.311886,0.051601
3.315966,0.051688
3.320042,0.051747
3.324112,0.051759
3.328178,0.051734
3.332238,0.051689
3.336294,0.051645
3.340345,0.051605
3.344391,0.051571
3.348432,0.051539
3.352469,0.051512
3.356500,0.051492
3.360527,0.051484
3.364549,0.051487
3.368566,0.051501
3.372579,0.051526
3.376586,0.051565
3.380589,0.051628
3.384588,0.051739
3.388581,0.051894
3.392570,0.052098
3.396554,0.052325
3.400534,0.052557
3.404509,0.052784
3.408479,0.053011
3.412445,0.053245
3.416406,0.053487
3.420362,0.053732
3.424314,0.053977
3.428262,0.054215
3.432204,0.054443
3.436143,0.054658
3.440077,0.054859
3.444006,0.055040
3.447931,0.055206
3.451851,0.055342
3.455767,0.055462
3.459679,0.055559
3.463586,0.055638
3.467488,0.055700
3.471386,0.055743
3.475280,0.055768
3.479170,0.055777
3.483055,0.055776
3.486936,0.055771
3.490812,0.055763
3.494684,0.055753
3.498552,0.055743
3.502415,0.055738
3.506275,0.055740
3.510130,0.055761
3.513980,0.055791
3.517827,0.055847
3.521669,0.055913
3.525507,0.055993
3.529341,0.056087
3.533170,0.056191
3.536996,0.056303
3.540817,0.056423
3.544634,0.056557
3.548447,0.056710
3.552255,0.056882
3.556060,0.057069
3.559861,0.057247
3.563657,0.057449
3.567449,0.057662
3.571238,0.057891
3.575022,0.058135
3.578802,0.058391
3.582578,0.058653
3.586350,0.058920
3.590118,0.059189
3.593882,0.059457
3.597642,0.059720
3.601398,0.059975
3.605151,0.060219
3.608899,0.060452
3.612643,0.060674
3.616383,0.060882
3.620120,0.061075
3.623852,0.061249
3.627580,0.061399
3.631305,0.061525
3.635026,0.061626
3.638743,0.061707
3.642456,0.061771
3.646165,0.061821
3.649870,0.061856
3.653572,0.061874
3.657269,0.061878
3.660963,0.061877
3.664653,0.061882
3.668340,0.061904
3.672022,0.061949
3.675701,0.062015
3.679376,0.062097
3.683047,0.062195
3.686715,0.062319
3.690378,0.062483
3.694038,0.062690
3.697695,0.062927
3.701347,0.063176
3.704996,0.063427
3.708642,0.063682
3.712283,0.063946
3.715921,0.064228
3.719556,0.064530
3.723186,0.064861
3.726814,0.065226
3.730437,0.065626
3.734057,0.066051
3.737673,0.066479
3.741286,0.066884
3.744895,0.067250
3.748501,0.067578
3.752103,0.067884
3.755701,0.068182
3.759296,0.068483
3.762887,0.068790
3.766475,0.069106
3.770060,0.069429
3.773640,0.069754
3.777218,0.070076
3.780792,0.070394
3.784362,0.070708
3.787929,0.071019
3.791493,0.071329
3.795053,0.071635
3.798609,0.071940
3.802162,0.072245
3.805712,0.072550
3.809259,0.072859
3.812801,0.073166
3.816341,0.073469
3.819877,0.073769
3.823410,0.074067
3.826939,0.074365
3.830466,0.074663
3.833988,0.074958
3.837508,0.075248
3.841024,0.075532
3.844537,0.075810
3.848046,0.076085
3.851552,0.076358
3.855055,0.076623
3.858554,0.076890
3.862051,0.077142
3.865544,0.077391
3.869033,0.077630
3.872520,0.077867
3.876003,0.078106
3.879483,0.078351
3.882960,0.078602
3.886433,0.078862
3.889904,0.079131
3.893371,0.079413
3.896835,0.079709
3.900295,0.080022
3.903753,0.080355
3.907207,0.080710
3.910659,0.081088
3.914107,0.081501
3.917551,0.081934
3.920993,0.082401
3.924432,0.082885
3.927867,0.083385
3.931300,0.083899
3.934729,0.084422
3.938155,0.084949
3.941578,0.085478
3.944998,0.086003
3.948415,0.086521
3.951829,0.087026
3.955239,0.087513
3.958647,0.087980
3.962052,0.088422
3.965453,0.088834
3.968852,0.089218
3.972247,0.089561
3.975640,0.089885
3.979029,0.090175
3.982416,0.090442
3.985799,0.090688
3.989180,0.090918
3.992557,0.091136
3.995932,0.091345
3.999303,0.091551
4.002672,0.091757
4.006037,0.091966
4.009400,0.092181
4.012760,0.092406
4.016116,0.092647
4.019470,0.092906
4.022821,0.093191
4.026169,0.093500
4.029514,0.093832
4.032856,0.094185
4.036196,0.094554
4.039532,0.094939
4.042866,0.095337
4.046196,0.095748
4.049524,0.096173
4.052849,0.096616
4.056171,0.097077
4.059490,0.097551
4.062807,0.098034
4.066120,0.098521
4.069431,0.099011
4.072739,0.099501
4.076044,0.099993
4.079346,0.100481
4.082646,0.100965
4.085942,0.101446
4.089236,0.101926
4.092527,0.102405
4.095815,0.102881
4.099101,0.103353
4.102384,0.103817
4.105664,0.104272
4.108941,0.104719
4.112216,0.105160
4.115487,0.105595
4.118756,0.106022
4.122023,0.106439
4.125286,0.106842
4.128547,0.107232
4.131805,0.107612
4.135061,0.107983
4.138314,0.108349
4.141564,0.108713
4.144811,0.109078
4.148056,0.109450
4.151298,0.109833
4.154537,0.110230
4.157774,0.110642
4.161008,0.111067
4.164239,0.111508
4.167468,0.111967
4.170694,0.112449
4.173918,0.112960
4.177139,0.113505
4.180357,0.114085
4.183573,0.114700
4.186786,0.115341
4.189996,0.116004
4.193204,0.116683
4.196409,0.117375
4.199612,0.118080
4.202812,0.118800
4.206009,0.119540
4.209204,0.120296
4.212397,0.121061
4.215587,0.121822
4.218774,0.122571
4.221959,0.123303
4.225141,0.124016
4.228320,0.124705
4.231497,0.125366
4.234672,0.126005
4.237844,0.126617
4.241014,0.127208
4.244181,0.127784
4.247345,0.128349
4.250507,0.128904
4.253667,0.129445
4.256824,0.129970
4.259979,0.130481
4.263131,0.130979
4.266280,0.131467
4.269427,0.131945
4.272572,0.132414
4.275714,0.132864
4.278854,0.133311
4.281992,0.133723
4.285127,0.134106
4.288259,0.134437
4.291389,0.134725
4.294517,0.135006
4.297642,0.135325
4.300765,0.135712
4.303885,0.136162
4.307003,0.136650
4.310119,0.137149
4.313232,0.137645
4.316343,0.138138
4.319451,0.138632
4.322557,0.139130
4.325661,0.139632
4.328762,0.140152
4.331861,0.140671
4.334958,0.141209
4.338052,0.141732
4.341144,0.142231
4.344233,0.142694
4.347321,0.143132
4.350405,0.143580
4.353488,0.144078
4.356568,0.144647
4.359646,0.145275
4.362722,0.145935
4.365795,0.146610
4.368866,0.147290
4.371934,0.147975
4.375001,0.148661
4.378065,0.149355
4.381126,0.150048
4.384186,0.150741
4.387243,0.151435
4.390298,0.152126
4.393351,0.152811
4.396401,0.153479
4.399449,0.154126
4.402495,0.154755
4.405539,0.155390
4.408580,0.156069
4.411619,0.156822
4.414656,0.157657
4.417691,0.158560
4.420723,0.159508
4.423753,0.160485
4.426781,0.161487
4.429807,0.162503
4.432831,0.163530
4.435852,0.164565
4.438871,0.165604
4.441888,0.166642
4.444903,0.167672
4.447915,0.168688
4.450926,0.169682
4.453934,0.170640
4.456940,0.171544
4.459944,0.172379
4.462945,0.173144
4.465945,0.173858
4.468942,0.174546
4.471937,0.175216
4.474930,0.175862
4.477921,0.176467
4.480910,0.177019
4.483897,0.177514
4.486881,0.177955
4.489863,0.178355
4.492844,0.178736
4.495822,0.179116
4.498798,0.179503
4.501772,0.179901
4.504743,0.180318
4.507713,0.180769
4.510680,0.181269
4.513646,0.181826
4.516609,0.182437
4.519570,0.183105
4.522530,0.183851
4.525487,0.184703
4.528442,0.185673
4.531395,0.186763
4.534345,0.187949
4.537294,0.189198
4.540241,0.190483
4.543186,0.191790
4.546128,0.193120
4.549069,0.194474
4.552007,0.195844
4.554944,0.197217
4.557878,0.198571
4.560810,0.199890
4.563741,0.201169
4.566669,0.202407
4.569595,0.203600
4.572520,0.204752
4.575442,0.205849
4.578362,0.206889
4.581280,0.207880
4.584197,0.208839
4.587111,0.209786
4.590023,0.210736
4.592933,0.211691
4.595842,0.212646
4.598748,0.213597
4.601652,0.214540
4.604554,0.215476
4.607455,0.216410
4.610353,0.217347
4.613249,0.218292
4.616144,0.219246
4.619036,0.220228
4.621927,0.221220
4.624815,0.222227
4.627702,0.223242
4.630586,0.224257
4.633469,0.225267
4.636350,0.226267
4.639229,0.227256
4.642105,0.228234
4.644980,0.229205
4.647853,0.230172
4.650724,0.231142
4.653594,0.232119
4.656461,0.233089
4.659326,0.234071
4.662190,0.235017
4.665051,0.235964
4.667911,0.236882
4.670768,0.237784
4.673624,0.238673
4.676478,0.239552
4.679330,0.240426
4.682180,0.241299
4.685029,0.242173
4.687875,0.243045
4.690720,0.243917
4.693562,0.244790
4.696403,0.245669
4.699242,0.246558
4.702079,0.247451
4.704914,0.248369
4.707747,0.249278
4.710579,0.250226
4.713408,0.251173
4.716236,0.252133
4.719062,0.253104
4.721886,0.254080
4.724708,0.255054
4.727529,0.256020
4.730347,0.256977
4.733164,0.257925
4.735979,0.258864
4.738792,0.259793
4.741604,0.260709
4.744413,0.261607
4.747221,0.262480
4.750027,0.263339
4.752831,0.264172
4.755633,0.264987
4.758433,0.265790
4.761232,0.266586
4.764029,0.267383
4.766824,0.268184
4.769617,0.268997
4.772409,0.269827
4.775199,0.270679
4.777987,0.271558
4.780773,0.272471
4.783557,0.273423
4.786340,0.274417
4.789121,0.275463
4.791900,0.276561
4.794677,0.277726
4.797453,0.278953
4.800226,0.280235
4.802999,0.281566
4.805769,0.282940
4.808538,0.284350
4.811304,0.285790
4.814069,0.287255
4.816833,0.288741
4.819595,0.290240
4.822354,0.291748
4.825113,0.293257
4.827869,0.294759
4.830624,0.296250
4.833377,0.297724
4.836128,0.299176
4.838878,0.300606
4.841626,0.302010
4.844372,0.303383
4.847116,0.304724
4.849859,0.306032
4.852600,0.307310
4.855340,0.308559
4.858077,0.309783
4.860813,0.310983
4.863548,0.312162
4.866280,0.313318
4.869011,0.314453
4.871740,0.315567
4.874468,0.316656
4.877194,0.317717
4.879918,0.318749
4.882641,0.319758
4.885362,0.320752
4.888081,0.321726
4.890799,0.322689
4.893514,0.323648
4.896229,0.324609
4.898941,0.325571
4.901652,0.326539
4.904362,0.327519
4.907069,0.328511
4.909775,0.329513
4.912480,0.330523
4.915183,0.331538
4.917884,0.332554
4.920583,0.333574
4.923281,0.334607
4.925977,0.335660
4.928672,0.336749
4.931365,0.337855
4.934056,0.338981
4.936746,0.340127
4.939434,0.341289
4.942121,0.342464
4.944806,0.343649
4.947489,0.344836
4.950171,0.346026
4.952851,0.347222
4.955530,0.348419
4.958207,0.349605
4.960882,0.350775
4.963556,0.351917
4.966228,0.353100
4.968899,0.354244
4.971568,0.355400
4.974235,0.356552
4.976901,0.357727
4.979565,0.358926
4.982228,0.360140
4.984889,0.361370
4.987549,0.362618
4.990207,0.363872
4.992863,0.365121
4.995518,0.366376
4.998172,0.367670
5.000823,0.369011
5.003474,0.370391
5.006122,0.371787
5.008769,0.373259
5.011415,0.374750
5.014059,0.376322
5.016702,0.377906
5.019343,0.379517
5.021982,0.381162
5.024620,0.382847
5.027256,0.384567
5.029891,0.386307
5.032524,0.388056
5.035156,0.389826
5.037787,0.391640
5.040415,0.393499
5.043043,0.395388
5.045668,0.397305
