wave,flux
0.603108,0.080273
0.604550,0.081966
0.606002,0.083407
0.607464,0.084589
0.608936,0.085514
0.610418,0.086210
0.611910,0.086723
0.613412,0.087122
0.614925,0.087486
0.616448,0.087871
0.617982,0.088278
0.619527,0.088654
0.621083,0.088950
0.622649,0.089176
0.624227,0.089404
0.625816,0.089711
0.627416,0.090101
0.629027,0.090521
0.630651,0.090929
0.632285,0.091329
0.633932,0.091752
0.635591,0.092207
0.637261,0.092718
0.638944,0.093156
0.640639,0.093554
0.642347,0.093917
0.644067,0.094258
0.645800,0.094576
0.647546,0.094845
0.649305,0.095012
0.651077,0.095005
0.652862,0.094821
0.654660,0.094601
0.656473,0.094582
0.658299,0.094903
0.660138,0.095475
0.661992,0.096070
0.663860,0.096504
0.665742,0.096727
0.667639,0.096784
0.669551,0.096742
0.671477,0.096650
0.673418,0.096535
0.675375,0.096406
0.677346,0.096260
0.679334,0.096103
0.681337,0.095954
0.683355,0.095847
0.685390,0.095807
0.687441,0.095823
0.689508,0.095857
0.691592,0.095864
0.693692,0.095816
0.695809,0.095717
0.697944,0.095596
0.700096,0.095501
0.702265,0.095470
0.704452,0.095495
0.706657,0.095518
0.708879,0.095467
0.711120,0.095308
0.713380,0.095077
0.715658,0.094869
0.717956,0.094790
0.720272,0.094884
0.722607,0.095108
0.724963,0.095365
0.727337,0.095585
0.729732,0.095748
0.732147,0.095844
0.734583,0.095860
0.737039,0.095814
0.739516,0.095793
0.742014,0.095907
0.744533,0.096195
0.747074,0.096603
0.749637,0.097031
0.752221,0.097402
0.754828,0.097676
0.757458,0.097846
0.760110,0.097921
0.762786,0.097941
0.765484,0.097961
0.768206,0.098043
0.770952,0.098230
0.773722,0.098519
0.776516,0.098859
0.779335,0.099173
0.782178,0.099393
0.785047,0.099490
0.787941,0.099490
0.790860,0.099475
0.793805,0.099537
0.796777,0.099713
0.799775,0.099964
0.802799,0.100233
0.805850,0.100468
0.808929,0.100648
0.812035,0.100744
0.815168,0.100764
0.818330,0.100775
0.821520,0.100862
0.824739,0.101045
0.827986,0.101264
0.831262,0.101441
0.834568,0.101501
0.837903,0.101351
0.841269,0.100873
0.844664,0.100037
0.848090,0.099030
0.851547,0.098199
0.855034,0.097809
0.858553,0.097843
0.862103,0.098139
0.865686,0.098595
0.869300,0.099206
0.872946,0.099925
0.876625,0.100624
0.880337,0.101198
0.884082,0.101629
0.887860,0.101928
0.891672,0.102084
0.895517,0.102094
0.899396,0.102009
0.903310,0.101914
0.907258,0.101848
0.911241,0.101781
0.915259,0.101695
0.919311,0.101617
0.923399,0.101651
0.927523,0.101823
0.931682,0.102058
0.935877,0.102254
0.940109,0.102381
0.944376,0.102477
0.948680,0.102583
0.953020,0.102722
0.957397,0.102906
0.961810,0.103140
0.966261,0.103410
0.970749,0.103685
0.975273,0.103935
0.979835,0.104133
0.984435,0.104262
0.989071,0.104293
0.993745,0.104206
0.998457,0.104017
1.003206,0.103795
1.007992,0.103621
1.012817,0.103537
1.017678,0.103524
1.022578,0.103531
1.027514,0.103511
1.032488,0.103453
1.037500,0.103375
1.042549,0.103296
1.047635,0.103208
1.052758,0.103096
1.057919,0.103004
1.063116,0.103050
1.068350,0.103331
1.073620,0.103775
1.078927,0.104098
1.084271,0.104023
1.089650,0.103561
1.095065,0.103030
1.100516,0.102764
1.106001,0.102850
1.111522,0.103141
1.117078,0.103452
1.122668,0.103704
1.128293,0.103926
1.133951,0.104180
1.139643,0.104483
1.145368,0.104782
1.151125,0.104999
1.156915,0.105091
1.162737,0.105076
1.168591,0.104994
1.174476,0.104874
1.180391,0.104724
1.186337,0.104565
1.192313,0.104439
1.198318,0.104413
1.204351,0.104544
1.210414,0.104822
1.216504,0.105164
1.222621,0.105457
1.228766,0.105632
1.234936,0.105688
1.241132,0.105662
1.247354,0.105584
1.253600,0.105451
1.259871,0.105241
1.266165,0.104946
1.272482,0.104625
1.278821,0.104403
1.285182,0.104392
1.291565,0.104593
1.297968,0.104891
1.304391,0.105162
1.310834,0.105357
1.317295,0.105509
1.323775,0.105662
1.330272,0.105833
1.336787,0.106007
1.343318,0.106153
1.349865,0.106261
1.356428,0.106347
1.363005,0.106450
1.369596,0.106604
1.376201,0.106806
1.382819,0.107017
1.389449,0.107182
1.396091,0.107264
1.402744,0.107259
1.409409,0.107193
1.416083,0.107115
1.422766,0.107077
1.429459,0.107117
1.436160,0.107242
1.442870,0.107428
1.449586,0.107648
1.456310,0.107862
1.463040,0.108035
1.469776,0.108159
1.476517,0.108248
1.483263,0.108329
1.490014,0.108428
1.496768,0.108572
1.503526,0.108791
1.510287,0.109091
1.517050,0.109424
1.523816,0.109707
1.530583,0.109864
1.537351,0.109860
1.544120,0.109683
1.550890,0.109327
1.557660,0.108795
1.564429,0.108119
1.571197,0.107364
1.577965,0.106641
1.584730,0.106051
1.591494,0.105625
1.598256,0.105312
1.605015,0.105028
1.611771,0.104712
1.618524,0.104333
1.625274,0.103873
1.632019,0.103342
1.638761,0.102802
1.645498,0.102319
1.652230,0.101893
1.658957,0.101449
1.665679,0.100936
1.672396,0.100396
1.679106,0.099940
1.685811,0.099639
1.692509,0.099455
1.699201,0.099274
1.705886,0.099001
1.712564,0.098600
1.719235,0.098099
1.725899,0.097578
1.732555,0.097143
1.739204,0.096878
1.745844,0.096782
1.752476,0.096768
1.759100,0.096722
1.765716,0.096573
1.772323,0.096308
1.778921,0.095950
1.785511,0.095514
1.792091,0.094994
1.798662,0.094382
1.805224,0.093700
1.811776,0.093016
1.818319,0.092409
1.824852,0.091917
1.831376,0.091505
1.837889,0.091099
1.844393,0.090638
1.850886,0.090093
1.857369,0.089472
1.863842,0.088820
1.870305,0.088221
1.876757,0.087757
1.883198,0.087452
1.889629,0.087274
1.896049,0.087159
1.902459,0.087048
1.908858,0.086898
1.915245,0.086677
1.921622,0.086377
1.927988,0.086018
1.934343,0.085653
1.940687,0.085351
1.947020,0.085162
1.953341,0.085079
1.959652,0.085051
1.965951,0.085018
1.972239,0.084954
1.978516,0.084870
1.984781,0.084781
1.991035,0.084697
1.997277,0.084616
2.003509,0.084524
2.009728,0.084413
2.015937,0.084276
2.022134,0.084121
2.028319,0.083959
2.034493,0.083800
2.040656,0.083641
2.046807,0.083472
2.052946,0.083285
2.059074,0.083078
2.065191,0.082852
2.071296,0.082608
2.077389,0.082350
2.083471,0.082074
2.089542,0.081786
2.095601,0.081489
2.101649,0.081183
2.107685,0.080869
2.113710,0.080548
2.119723,0.080221
2.125725,0.079892
2.131715,0.079563
2.137694,0.079233
2.143661,0.078901
2.149618,0.078570
2.155562,0.078247
2.161496,0.077942
2.167418,0.077657
2.173329,0.077395
2.179228,0.077143
2.185117,0.076896
2.190994,0.076654
2.196859,0.076418
2.202714,0.076189
2.208557,0.075968
2.214390,0.075751
2.220211,0.075540
2.226021,0.075332
2.231820,0.075130
2.237608,0.074933
2.243384,0.074740
2.249150,0.074545
2.254905,0.074357
2.260649,0.074161
2.266382,0.073970
2.272104,0.073777
2.277816,0.073588
2.283516,0.073403
2.289206,0.073216
2.294885,0.073025
2.300553,0.072828
2.306210,0.072631
2.311857,0.072439
2.317493,0.072253
2.323119,0.072064
2.328734,0.071861
2.334339,0.071642
2.339933,0.071412
2.345516,0.071191
2.351089,0.070966
2.356652,0.070747
2.362204,0.070515
2.367746,0.070279
2.373278,0.070046
2.378799,0.069811
2.384310,0.069561
2.389811,0.069285
2.395302,0.068989
2.400783,0.068695
2.406254,0.068420
2.411714,0.068161
2.417165,0.067897
2.422605,0.067611
2.428036,0.067305
2.433456,0.067005
2.438867,0.066720
2.444268,0.066451
2.449659,0.066177
2.455041,0.065881
2.460412,0.065563
2.465774,0.065243
2.471126,0.064938
2.476469,0.064643
2.481802,0.064336
2.487126,0.063997
2.492440,0.063632
2.497744,0.063264
2.503039,0.062914
2.508325,0.062585
2.513601,0.062264
2.518868,0.061945
2.524125,0.061634
2.529373,0.061347
2.534612,0.061093
2.539842,0.060862
2.545063,0.060635
2.550274,0.060400
2.555476,0.060154
2.560670,0.059908
2.565854,0.059675
2.571029,0.059475
2.576195,0.059314
2.581353,0.059181
2.586501,0.059053
2.591641,0.058917
2.596771,0.058790
2.601893,0.058719
2.607007,0.058748
2.612111,0.058889
2.617207,0.059102
2.622294,0.059301
2.627372,0.059406
2.632442,0.059397
2.637503,0.059322
2.642556,0.059247
2.647600,0.059215
2.652636,0.059233
2.657663,0.059278
2.662682,0.059315
2.667693,0.059312
2.672695,0.059260
2.677689,0.059173
2.682675,0.059076
2.687652,0.058989
2.692621,0.058913
2.697582,0.058842
2.702535,0.058770
2.707480,0.058691
2.712417,0.058601
2.717346,0.058499
2.722266,0.058383
2.727179,0.058255
2.732084,0.058120
2.736980,0.057988
2.741869,0.057872
2.746750,0.057781
2.751623,0.057706
2.756489,0.057619
2.761346,0.057488
2.766196,0.057309
2.771038,0.057090
2.775873,0.056856
2.780700,0.056621
2.785519,0.056393
2.790330,0.056179
2.795134,0.055982
2.799931,0.055801
2.804720,0.055631
2.809501,0.055465
2.814275,0.055302
2.819042,0.055143
2.823801,0.054989
2.828553,0.054836
2.833297,0.054708
2.838034,0.054579
2.842764,0.054460
2.847487,0.054341
2.852202,0.054235
2.856911,0.054152
2.861612,0.054097
2.866305,0.054048
2.870992,0.053968
2.875672,0.053830
2.880344,0.053636
2.885010,0.053419
2.889669,0.053210
2.894320,0.053026
2.898965,0.052865
2.903602,0.052718
2.908233,0.052596
2.912857,0.052476
2.917474,0.052373
2.922084,0.052265
2.926688,0.052145
2.931284,0.052011
2.935874,0.051871
2.940457,0.051732
2.945033,0.051593
2.949603,0.051449
2.954166,0.051301
2.958723,0.051154
2.963272,0.051020
2.967816,0.050906
2.972352,0.050816
2.976882,0.050747
2.981406,0.050708
2.985923,0.050677
2.990434,0.050671
2.994938,0.050657
2.999436,0.050633
3.003927,0.050599
3.008412,0.050569
3.012891,0.050560
3.017363,0.050588
3.021829,0.050664
3.026289,0.050787
3.030743,0.050936
3.035190,0.051059
3.039631,0.051105
3.044066,0.051056
3.048495,0.050946
3.052917,0.050839
3.057334,0.050766
3.061744,0.050730
3.066149,0.050712
3.070547,0.050700
3.074939,0.050690
3.079325,0.050686
3.083705,0.050687
3.088080,0.050689
3.092448,0.050691
3.096810,0.050701
3.101167,0.050731
3.105517,0.050786
3.109862,0.050850
3.114201,0.050890
3.118534,0.050875
3.122861,0.050812
3.127182,0.050729
3.131498,0.050663
3.135808,0.050637
3.140112,0.050649
3.144410,0.050686
3.148703,0.050723
3.152990,0.050740
3.157272,0.050732
3.161548,0.050707
3.165818,0.050671
3.170082,0.050624
3.174342,0.050561
3.178595,0.050486
3.182843,0.050408
3.187086,0.050334
3.191323,0.050270
3.195554,0.050213
3.199780,0.050153
3.204001,0.050085
3.208216,0.050009
3.212426,0.049931
3.216630,0.049855
3.220829,0.049786
3.225023,0.049728
3.229211,0.049688
3.233394,0.049669
3.237572,0.049667
3.241744,0.049676
3.245912,0.049692
3.250074,0.049725
3.254230,0.049784
3.258382,0.049878
3.262528,0.050007
3.266669,0.050164
3.270805,0.050353
3.274936,0.050578
3.279062,0.050845
3.283183,0.051158
3.287298,0.051504
3.291409,0.051840
3.295514,0.052107
3.299615,0.052265
3.303710,0.052337
3.307800,0.052388
3.311886,0.052466
3.315966,0.052553
3.320042,0.052589
3.324112,0.052527
3.328178,0.052386
3.332238,0.052212
3.336294,0.052048
3.340345,0.051907
3.344391,0.051781
3.348432,0.051661
3.352469,0.051544
3.356500,0.051433
3.360527,0.051335
3.364549,0.051246
3.368566,0.051156
3.372579,0.051062
3.376586,0.050970
3.380589,0.050900
3.384588,0.050902
3.388581,0.050974
3.392570,0.051121
3.396554,0.051292
3.400534,0.051442
3.404509,0.051555
3.408479,0.051646
3.412445,0.051742
3.416406,0.051852
3.420362,0.051973
3.424314,0.052097
3.428262,0.052218
3.432204,0.052333
3.436143,0.052441
3.440077,0.052546
3.444006,0.052641
3.447931,0.052739
3.451851,0.052816
3.455767,0.052892
3.459679,0.052957
3.463586,0.053015
3.467488,0.053063
3.471386,0.053091
3.475280,0.053097
3.479170,0.053083
3.483055,0.053060
3.486936,0.053036
3.490812,0.053012
3.494684,0.052986
3.498552,0.052957
3.502415,0.052933
3.506275,0.052918
3.510130,0.052931
3.513980,0.052956
3.517827,0.053015
3.521669,0.053086
3.525507,0.053172
3.529341,0.053269
3.533170,0.053369
3.536996,0.053466
3.540817,0.053560
3.544634,0.053663
3.548447,0.053789
3.552255,0.053941
3.556060,0.054104
3.559861,0.054208
3.563657,0.054353
3.567449,0.054496
3.571238,0.054652
3.575022,0.054817
3.578802,0.054989
3.582578,0.055161
3.586350,0.055329
3.590118,0.055494
3.593882,0.055655
3.597642,0.055806
3.601398,0.055941
3.605151,0.056061
3.608899,0.056169
3.612643,0.056271
3.616383,0.056366
3.620120,0.056455
3.623852,0.056532
3.627580,0.056592
3.631305,0.056637
3.635026,0.056667
3.638743,0.056690
3.642456,0.056709
3.646165,0.056721
3.649870,0.056717
3.653572,0.056690
3.657269,0.056638
3.660963,0.056578
3.664653,0.056535
3.668340,0.056535
3.672022,0.056587
3.675701,0.056678
3.679376,0.056787
3.683047,0.056908
3.686715,0.057061
3.690378,0.057280
3.694038,0.057574
3.697695,0.057905
3.701347,0.058225
3.704996,0.058508
3.708642,0.058759
3.712283,0.059002
3.715921,0.059257
3.719556,0.059545
3.723186,0.059887
3.726814,0.060305
3.730437,0.060806
3.734057,0.061365
3.737673,0.061920
3.741286,0.062394
3.744895,0.062741
3.748501,0.062964
3.752103,0.063110
3.755701,0.063228
3.759296,0.063348
3.762887,0.063487
3.766475,0.063649
3.770060,0.063829
3.773640,0.064015
3.777218,0.064192
3.780792,0.064352
3.784362,0.064498
3.787929,0.064634
3.791493,0.064762
3.795053,0.064881
3.798609,0.064993
3.802162,0.065105
3.805712,0.065219
3.809259,0.065342
3.812801,0.065463
3.816341,0.065579
3.819877,0.065692
3.823410,0.065809
3.826939,0.065938
3.830466,0.066082
3.833988,0.066235
3.837508,0.066389
3.841024,0.066543
3.844537,0.066704
3.848046,0.066880
3.851552,0.067079
3.855055,0.067294
3.858554,0.067534
3.862051,0.067772
3.865544,0.068012
3.869033,0.068245
3.872520,0.068478
3.876003,0.068723
3.879483,0.068983
3.882960,0.069258
3.886433,0.069539
3.889904,0.069822
3.893371,0.070107
3.896835,0.070394
3.900295,0.070684
3.903753,0.070978
3.907207,0.071281
3.910659,0.071590
3.914107,0.071916
3.917551,0.072242
3.920993,0.072579
3.924432,0.072915
3.927867,0.073253
3.931300,0.073594
3.934729,0.073935
3.938155,0.074277
3.941578,0.074622
3.944998,0.074969
3.948415,0.075312
3.951829,0.075643
3.955239,0.075952
3.958647,0.076238
3.962052,0.076504
3.965453,0.076756
3.968852,0.077005
3.972247,0.077242
3.975640,0.077489
3.979029,0.077728
3.982416,0.077964
3.985799,0.078194
3.989180,0.078414
3.992557,0.078620
3.995932,0.078810
3.999303,0.078988
4.002672,0.079165
4.006037,0.079352
4.009400,0.079557
4.012760,0.079778
4.016116,0.080004
4.019470,0.080228
4.022821,0.080457
4.026169,0.080695
4.029514,0.080953
4.032856,0.081235
4.036196,0.081544
4.039532,0.081884
4.042866,0.082252
4.046196,0.082639
4.049524,0.083030
4.052849,0.083411
4.056171,0.083783
4.059490,0.084157
4.062807,0.084549
4.066120,0.084965
4.069431,0.085404
4.072739,0.085864
4.076044,0.086348
4.079346,0.086855
4.082646,0.087380
4.085942,0.087917
4.089236,0.088455
4.092527,0.088990
4.095815,0.089519
4.099101,0.090043
4.102384,0.090561
4.105664,0.091068
4.108941,0.091558
4.112216,0.092025
4.115487,0.092463
4.118756,0.092869
4.122023,0.093244
4.125286,0.093584
4.128547,0.093885
4.131805,0.094151
4.135061,0.094387
4.138314,0.094601
4.141564,0.094802
4.144811,0.094996
4.148056,0.095191
4.151298,0.095393
4.154537,0.095611
4.157774,0.095856
4.161008,0.096137
4.164239,0.096464
4.167468,0.096844
4.170694,0.097284
4.173918,0.097791
4.177139,0.098371
4.180357,0.099031
4.183573,0.099772
4.186786,0.100578
4.189996,0.101441
4.193204,0.102348
4.196409,0.103288
4.199612,0.104247
4.202812,0.105211
4.206009,0.106166
4.209204,0.107101
4.212397,0.108006
4.215587,0.108870
4.218774,0.109685
4.221959,0.110439
4.225141,0.111118
4.228320,0.111711
4.231497,0.112205
4.234672,0.112613
4.237844,0.112935
4.241014,0.113186
4.244181,0.113375
4.247345,0.113512
4.250507,0.113608
4.253667,0.113674
4.256824,0.113722
4.259979,0.113762
4.263131,0.113805
4.266280,0.113860
4.269427,0.113940
4.272572,0.114054
4.275714,0.114208
4.278854,0.114429
4.281992,0.114707
4.285127,0.115057
4.288259,0.115461
4.291389,0.115917
4.294517,0.116414
4.297642,0.116943
4.300765,0.117494
4.303885,0.118063
4.307003,0.118646
4.310119,0.119238
4.313232,0.119835
4.316343,0.120428
4.319451,0.121013
4.322557,0.121583
4.325661,0.122126
4.328762,0.122648
4.331861,0.123127
4.334958,0.123590
4.338052,0.124024
4.341144,0.124441
4.344233,0.124847
4.347321,0.125249
4.350405,0.125647
4.353488,0.126043
4.356568,0.126441
4.359646,0.126847
4.362722,0.127267
4.365795,0.127708
4.368866,0.128176
4.371934,0.128677
4.375001,0.129212
4.378065,0.129795
4.381126,0.130421
4.384186,0.131089
4.387243,0.131793
4.390298,0.132531
4.393351,0.133298
4.396401,0.134092
4.399449,0.134909
4.402495,0.135744
4.405539,0.136591
4.408580,0.137438
4.411619,0.138275
4.414656,0.139094
4.417691,0.139892
4.420723,0.140668
4.423753,0.141419
4.426781,0.142148
4.429807,0.142848
4.432831,0.143522
4.435852,0.144171
4.438871,0.144796
4.441888,0.145398
4.444903,0.145979
4.447915,0.146541
4.450926,0.147086
4.453934,0.147618
4.456940,0.148142
4.459944,0.148665
4.462945,0.149187
4.465945,0.149701
4.468942,0.150196
4.471937,0.150665
4.474930,0.151111
4.477921,0.151541
4.480910,0.151963
4.483897,0.152389
4.486881,0.152826
4.489863,0.153275
4.492844,0.153734
4.495822,0.154203
4.498798,0.154684
4.501772,0.155184
4.504743,0.155709
4.507713,0.156259
4.510680,0.156833
4.513646,0.157438
4.516609,0.158084
4.519570,0.158782
4.522530,0.159526
4.525487,0.160303
4.528442,0.161081
4.531395,0.161849
4.534345,0.162612
4.537294,0.163385
4.540241,0.164177
4.543186,0.164989
4.546128,0.165810
4.549069,0.166626
4.552007,0.167430
4.554944,0.168222
4.557878,0.169011
4.560810,0.169800
4.563741,0.170584
4.566669,0.171348
4.569595,0.172079
4.572520,0.172789
4.575442,0.173487
4.578362,0.174190
4.581280,0.174902
4.584197,0.175609
4.587111,0.176291
4.590023,0.176934
4.592933,0.177541
4.595842,0.178126
4.598748,0.178707
4.601652,0.179299
4.604554,0.179911
4.607455,0.180548
4.610353,0.181212
4.613249,0.181905
4.616144,0.182620
4.619036,0.183367
4.621927,0.184125
4.624815,0.184896
4.627702,0.185686
4.630586,0.186508
4.633469,0.187372
4.636350,0.188285
4.639229,0.189243
4.642105,0.190242
4.644980,0.191271
4.647853,0.192310
4.650724,0.193329
4.653594,0.194304
4.656461,0.195226
4.659326,0.196141
4.662190,0.197035
4.665051,0.197959
4.667911,0.198889
4.670768,0.199834
4.673624,0.200792
4.676478,0.201754
4.679330,0.202709
4.682180,0.203646
4.685029,0.204566
4.687875,0.205481
4.690720,0.206404
4.693562,0.207333
4.696403,0.208256
4.699242,0.209161
4.702079,0.210041
4.704914,0.210927
4.707747,0.211798
4.710579,0.212696
4.713408,0.213548
4.716236,0.214337
4.719062,0.215052
4.721886,0.215721
4.724708,0.216395
4.727529,0.217113
4.730347,0.217877
4.733164,0.218663
4.735979,0.219436
4.738792,0.220182
4.741604,0.220906
4.744413,0.221630
4.747221,0.222369
4.750027,0.223139
4.752831,0.223919
4.755633,0.224705
4.758433,0.225507
4.761232,0.226337
4.764029,0.227199
4.766824,0.228083
4.769617,0.228982
4.772409,0.229897
4.775199,0.230827
4.777987,0.231758
4.780773,0.232678
4.783557,0.233582
4.786340,0.234485
4.789121,0.235407
4.791900,0.236359
4.794677,0.237343
4.797453,0.238340
4.800226,0.239336
4.802999,0.240315
4.805769,0.241266
4.808538,0.242196
4.811304,0.243115
4.814069,0.244032
4.816833,0.244955
4.819595,0.245895
4.822354,0.246845
4.825113,0.247786
4.827869,0.248705
4.830624,0.249611
4.833377,0.250521
4.836128,0.251448
4.838878,0.252411
4.841626,0.253407
4.844372,0.254402
4.847116,0.255366
4.849859,0.256297
4.852600,0.257210
4.855340,0.258113
4.858077,0.259022
4.860813,0.259960
4.863548,0.260929
4.866280,0.261918
4.869011,0.262929
4.871740,0.263963
4.874468,0.264992
4.877194,0.265983
4.879918,0.266943
4.882641,0.267904
4.885362,0.268882
4.888081,0.269860
4.890799,0.270866
4.893514,0.271930
4.896229,0.273054
4.898941,0.274224
4.901652,0.275447
4.904362,0.276733
4.907069,0.278068
4.909775,0.279419
4.912480,0.280754
4.915183,0.282040
4.917884,0.283243
4.920583,0.284363
4.923281,0.285441
4.925977,0.286510
4.928672,0.287596
4.931365,0.288674
4.934056,0.289756
4.936746,0.290844
4.939434,0.291936
4.942121,0.293030
4.944806,0.294112
4.947489,0.295165
4.950171,0.296198
4.952851,0.297239
4.955530,0.298280
4.958207,0.299272
4.960882,0.300203
4.963556,0.301103
4.966228,0.302078
4.968899,0.303034
4.971568,0.304008
4.974235,0.305020
4.976901,0.306144
4.979565,0.307364
4.982228,0.308628
4.984889,0.309925
4.987549,0.311254
4.990207,0.312548
4.992863,0.313741
4.995518,0.314882
4.998172,0.316084
5.000823,0.317381
5.003474,0.318714
5.006122,0.320033
5.008769,0.321421
5.011415,0.322838
5.014059,0.324319
5.016702,0.325758
5.019343,0.327165
5.021982,0.328570
5.024620,0.330003
5.027256,0.331444
5.029891,0.332837
5.032524,0.334149
5.035156,0.335432
5.037787,0.336771
5.040415,0.338178
5.043043,0.339594
5.045668,0.341021
5.048292,0.342555
