wave,flux
0.603108,0.076280
0.604550,0.077327
0.606002,0.078055
0.607464,0.078336
0.608936,0.078192
0.610418,0.077755
0.611910,0.077236
0.613412,0.076891
0.614925,0.076952
0.616448,0.077495
0.617982,0.078355
0.619527,0.079212
0.621083,0.079824
0.622649,0.080207
0.624227,0.080574
0.625816,0.081091
0.627416,0.081740
0.629027,0.082362
0.630651,0.082861
0.632285,0.083280
0.633932,0.083714
0.635591,0.084192
0.637261,0.084648
0.638944,0.085045
0.640639,0.085356
0.642347,0.085612
0.644067,0.085846
0.645800,0.086063
0.647546,0.086226
0.649305,0.086246
0.651077,0.086020
0.652862,0.085560
0.654660,0.085118
0.656473,0.085061
0.658299,0.085561
0.660138,0.086438
0.661992,0.087327
0.663860,0.087962
0.665742,0.088288
0.667639,0.088388
0.669551,0.088360
0.671477,0.088275
0.673418,0.088171
0.675375,0.088057
0.677346,0.087933
0.679334,0.087802
0.681337,0.087690
0.683355,0.087633
0.685390,0.087657
0.687441,0.087746
0.689508,0.087855
0.691592,0.087936
0.693692,0.087963
0.695809,0.087943
0.697944,0.087905
0.700096,0.087897
0.702265,0.087953
0.704452,0.088061
0.706657,0.088164
0.708879,0.088196
0.711120,0.088130
0.713380,0.088000
0.715658,0.087889
0.717956,0.087883
0.720272,0.088017
0.722607,0.088247
0.724963,0.088493
0.727337,0.088700
0.729732,0.088855
0.732147,0.088954
0.734583,0.088990
0.737039,0.088981
0.739516,0.088996
0.742014,0.089113
0.744533,0.089360
0.747074,0.089694
0.749637,0.090044
0.752221,0.090356
0.754828,0.090607
0.757458,0.090795
0.760110,0.090932
0.762786,0.091039
0.765484,0.091153
0.768206,0.091312
0.770952,0.091541
0.773722,0.091833
0.776516,0.092152
0.779335,0.092448
0.782178,0.092679
0.785047,0.092826
0.787941,0.092906
0.790860,0.092967
0.793805,0.093060
0.796777,0.093205
0.799775,0.093375
0.802799,0.093534
0.805850,0.093658
0.808929,0.093733
0.812035,0.093748
0.815168,0.093712
0.818330,0.093662
0.821520,0.093649
0.824739,0.093683
0.827986,0.093733
0.831262,0.093760
0.834568,0.093727
0.837903,0.093588
0.841269,0.093288
0.844664,0.092817
0.848090,0.092274
0.851547,0.091839
0.855034,0.091640
0.858553,0.091671
0.862103,0.091839
0.865686,0.092092
0.869300,0.092424
0.872946,0.092811
0.876625,0.093189
0.880337,0.093506
0.884082,0.093753
0.887860,0.093935
0.891672,0.094048
0.895517,0.094089
0.899396,0.094083
0.903310,0.094067
0.907258,0.094060
0.911241,0.094048
0.915259,0.094015
0.919311,0.093988
0.923399,0.094005
0.927523,0.094081
0.931682,0.094184
0.935877,0.094269
0.940109,0.094324
0.944376,0.094368
0.948680,0.094420
0.953020,0.094493
0.957397,0.094592
0.961810,0.094722
0.966261,0.094877
0.970749,0.095045
0.975273,0.095214
0.979835,0.095374
0.984435,0.095516
0.989071,0.095629
0.993745,0.095700
0.998457,0.095737
1.003206,0.095766
1.007992,0.095822
1.012817,0.095922
1.017678,0.096055
1.022578,0.096198
1.027514,0.096328
1.032488,0.096439
1.037500,0.096539
1.042549,0.096644
1.047635,0.096791
1.052758,0.097109
1.057919,0.097931
1.063116,0.099763
1.068350,0.102893
1.073620,0.106756
1.078927,0.109799
1.084271,0.110434
1.089650,0.108353
1.095065,0.104786
1.100516,0.101413
1.106001,0.099193
1.111522,0.098131
1.117078,0.097782
1.122668,0.097746
1.128293,0.097824
1.133951,0.097954
1.139643,0.098119
1.145368,0.098288
1.151125,0.098426
1.156915,0.098513
1.162737,0.098554
1.168591,0.098568
1.174476,0.098567
1.180391,0.098555
1.186337,0.098539
1.192313,0.098539
1.198318,0.098586
1.204351,0.098705
1.210414,0.098894
1.216504,0.099113
1.222621,0.099309
1.228766,0.099447
1.234936,0.099526
1.241132,0.099561
1.247354,0.099569
1.253600,0.099546
1.259871,0.099481
1.266165,0.099372
1.272482,0.099247
1.278821,0.099169
1.285182,0.099195
1.291565,0.099328
1.297968,0.099513
1.304391,0.099688
1.310834,0.099829
1.317295,0.099951
1.323775,0.100079
1.330272,0.100222
1.336787,0.100373
1.343318,0.100516
1.349865,0.100645
1.356428,0.100767
1.363005,0.100904
1.369596,0.101072
1.376201,0.101269
1.382819,0.101474
1.389449,0.101656
1.396091,0.101791
1.402744,0.101876
1.409409,0.101923
1.416083,0.101959
1.422766,0.102014
1.429459,0.102110
1.436160,0.102248
1.442870,0.102423
1.449586,0.102611
1.456310,0.102789
1.463040,0.102935
1.469776,0.103042
1.476517,0.103117
1.483263,0.103179
1.490014,0.103241
1.496768,0.103322
1.503526,0.103443
1.510287,0.103609
1.517050,0.103791
1.523816,0.103931
1.530583,0.103979
1.537351,0.103905
1.544120,0.103698
1.550890,0.103355
1.557660,0.102869
1.564429,0.102264
1.571197,0.101589
1.577965,0.100926
1.584730,0.100357
1.591494,0.099912
1.598256,0.099558
1.605015,0.099234
1.611771,0.098895
1.618524,0.098515
1.625274,0.098080
1.632019,0.097597
1.638761,0.097115
1.645498,0.096693
1.652230,0.096331
1.658957,0.095967
1.665679,0.095552
1.672396,0.095117
1.679106,0.094760
1.685811,0.094550
1.692509,0.094451
1.699201,0.094359
1.705886,0.094176
1.712564,0.093861
1.719235,0.093435
1.725899,0.092972
1.732555,0.092583
1.739204,0.092359
1.745844,0.092309
1.752476,0.092346
1.759100,0.092348
1.765716,0.092234
1.772323,0.091987
1.778921,0.091627
1.785511,0.091172
1.792091,0.090610
1.798662,0.089929
1.805224,0.089152
1.811776,0.088363
1.818319,0.087669
1.824852,0.087126
1.831376,0.086697
1.837889,0.086286
1.844393,0.085804
1.850886,0.085204
1.857369,0.084487
1.863842,0.083716
1.870305,0.083014
1.876757,0.082514
1.883198,0.082270
1.889629,0.082239
1.896049,0.082322
1.902459,0.082422
1.908858,0.082453
1.915245,0.082353
1.921622,0.082090
1.927988,0.081687
1.934343,0.081237
1.940687,0.080879
1.947020,0.080724
1.953341,0.080779
1.959652,0.080942
1.965951,0.081082
1.972239,0.081135
1.978516,0.081118
1.984781,0.081077
1.991035,0.081038
1.997277,0.080999
2.003509,0.080933
2.009728,0.080811
2.015937,0.080620
2.022134,0.080378
2.028319,0.080127
2.034493,0.079904
2.040656,0.079713
2.046807,0.079529
2.052946,0.079324
2.059074,0.079096
2.065191,0.078861
2.071296,0.078631
2.077389,0.078403
2.083471,0.078172
2.089542,0.077945
2.095601,0.077734
2.101649,0.077536
2.107685,0.077336
2.113710,0.077122
2.119723,0.076900
2.125725,0.076680
2.131715,0.076454
2.137694,0.076189
2.143661,0.075833
2.149618,0.075355
2.155562,0.074782
2.161496,0.074217
2.167418,0.073787
2.173329,0.073557
2.179228,0.073484
2.185117,0.073458
2.190994,0.073387
2.196859,0.073232
2.202714,0.073013
2.208557,0.072771
2.214390,0.072539
2.220211,0.072320
2.226021,0.072101
2.231820,0.071871
2.237608,0.071632
2.243384,0.071396
2.249150,0.071178
2.254905,0.070991
2.260649,0.070838
2.266382,0.070705
2.272104,0.070574
2.277816,0.070429
2.283516,0.070274
2.289206,0.070128
2.294885,0.070011
2.300553,0.069918
2.306210,0.069822
2.311857,0.069687
2.317493,0.069514
2.323119,0.069341
2.328734,0.069212
2.334339,0.069125
2.339933,0.069038
2.345516,0.068905
2.351089,0.068725
2.356652,0.068524
2.362204,0.068323
2.367746,0.068106
2.373278,0.067852
2.378799,0.067576
2.384310,0.067322
2.389811,0.067124
2.395302,0.066958
2.400783,0.066757
2.406254,0.066476
2.411714,0.066130
2.417165,0.065780
2.422605,0.065470
2.428036,0.065188
2.433456,0.064883
2.438867,0.064517
2.444268,0.064102
2.449659,0.063689
2.455041,0.063324
2.460412,0.063003
2.465774,0.062682
2.471126,0.062328
2.476469,0.061952
2.481802,0.061607
2.487126,0.061336
2.492440,0.061129
2.497744,0.060935
2.503039,0.060712
2.508325,0.060460
2.513601,0.060205
2.518868,0.059969
2.524125,0.059738
2.529373,0.059483
2.534612,0.059194
2.539842,0.058894
2.545063,0.058622
2.550274,0.058405
2.555476,0.058246
2.560670,0.058132
2.565854,0.058037
2.571029,0.057934
2.576195,0.057811
2.581353,0.057693
2.586501,0.057624
2.591641,0.057628
2.596771,0.057675
2.601893,0.057692
2.607007,0.057604
2.612111,0.057387
2.617207,0.057104
2.622294,0.056885
2.627372,0.056850
2.632442,0.057017
2.637503,0.057302
2.642556,0.057589
2.647600,0.057804
2.652636,0.057931
2.657663,0.057999
2.662682,0.058057
2.667693,0.058143
2.672695,0.058262
2.677689,0.058385
2.682675,0.058468
2.687652,0.058485
2.692621,0.058436
2.697582,0.058333
2.702535,0.058192
2.707480,0.058027
2.712417,0.057846
2.717346,0.057656
2.722266,0.057463
2.727179,0.057268
2.732084,0.057069
2.736980,0.056857
2.741869,0.056617
2.746750,0.056342
2.751623,0.056051
2.756489,0.055784
2.761346,0.055584
2.766196,0.055465
2.771038,0.055405
2.775873,0.055376
2.780700,0.055354
2.785519,0.055331
2.790330,0.055297
2.795134,0.055248
2.799931,0.055183
2.804720,0.055109
2.809501,0.055032
2.814275,0.054956
2.819042,0.054877
2.823801,0.054792
2.828553,0.054698
2.833297,0.054590
2.838034,0.054470
2.842764,0.054343
2.847487,0.054210
2.852202,0.054063
2.856911,0.053886
2.861612,0.053677
2.866305,0.053460
2.870992,0.053281
2.875672,0.053173
2.880344,0.053129
2.885010,0.053114
2.889669,0.053089
2.894320,0.053037
2.898965,0.052958
2.903602,0.052860
2.908233,0.052746
2.912857,0.052623
2.917474,0.052493
2.922084,0.052370
2.926688,0.052266
2.931284,0.052186
2.935874,0.052122
2.940457,0.052066
2.945033,0.052020
2.949603,0.051992
2.954166,0.051981
2.958723,0.051983
2.963272,0.051986
2.967816,0.051982
2.972352,0.051970
2.976882,0.051950
2.981406,0.051924
2.985923,0.051899
2.990434,0.051878
2.994938,0.051875
2.999436,0.051896
3.003927,0.051938
3.008412,0.051985
3.012891,0.052013
3.017363,0.052005
3.021829,0.051946
3.026289,0.051835
3.030743,0.051694
3.035190,0.051573
3.039631,0.051525
3.044066,0.051566
3.048495,0.051655
3.052917,0.051727
3.057334,0.051744
3.061744,0.051706
3.066149,0.051636
3.070547,0.051550
3.074939,0.051455
3.079325,0.051349
3.083705,0.051237
3.088080,0.051125
3.092448,0.051015
3.096810,0.050904
3.101167,0.050782
3.105517,0.050646
3.109862,0.050516
3.114201,0.050428
3.118534,0.050415
3.122861,0.050476
3.127182,0.050580
3.131498,0.050685
3.135808,0.050769
3.140112,0.050826
3.144410,0.050870
3.148703,0.050923
3.152990,0.051000
3.157272,0.051106
3.161548,0.051228
3.165818,0.051357
3.170082,0.051491
3.174342,0.051631
3.178595,0.051770
3.182843,0.051896
3.187086,0.051998
3.191323,0.052069
3.195554,0.052113
3.199780,0.052142
3.204001,0.052165
3.208216,0.052187
3.212426,0.052206
3.216630,0.052220
3.220829,0.052231
3.225023,0.052237
3.229211,0.052236
3.233394,0.052228
3.237572,0.052222
3.241744,0.052228
3.245912,0.052251
3.250074,0.052290
3.254230,0.052335
3.258382,0.052385
3.262528,0.052438
3.266669,0.052493
3.270805,0.052546
3.274936,0.052586
3.279062,0.052604
3.283183,0.052590
3.287298,0.052553
3.291409,0.052531
3.295514,0.052579
3.299615,0.052729
3.303710,0.052954
3.307800,0.053187
3.311886,0.053376
3.315966,0.053533
3.320042,0.053715
3.324112,0.053960
3.328178,0.054256
3.332238,0.054557
3.336294,0.054821
3.340345,0.055048
3.344391,0.055245
3.348432,0.055423
3.352469,0.055591
3.356500,0.055746
3.360527,0.055890
3.364549,0.056025
3.368566,0.056167
3.372579,0.056323
3.376586,0.056489
3.380589,0.056645
3.384588,0.056761
3.388581,0.056822
3.392570,0.056838
3.396554,0.056846
3.400534,0.056892
3.404509,0.056988
3.408479,0.057118
3.412445,0.057253
3.416406,0.057381
3.420362,0.057502
3.424314,0.057623
3.428262,0.057746
3.432204,0.057873
3.436143,0.058001
3.440077,0.058124
3.444006,0.058241
3.447931,0.058352
3.451851,0.058460
3.455767,0.058564
3.459679,0.058663
3.463586,0.058756
3.467488,0.058851
3.471386,0.058957
3.475280,0.059080
3.479170,0.059218
3.483055,0.059362
3.486936,0.059505
3.490812,0.059649
3.494684,0.059797
3.498552,0.059951
3.502415,0.060106
3.506275,0.060253
3.510130,0.060389
3.513980,0.060510
3.517827,0.060622
3.521669,0.060724
3.525507,0.060821
3.529341,0.060916
3.533170,0.061018
3.536996,0.061134
3.540817,0.061263
3.544634,0.061392
3.548447,0.061508
3.552255,0.061608
3.556060,0.061707
3.559861,0.061895
3.563657,0.062035
3.567449,0.062186
3.571238,0.062339
3.575022,0.062489
3.578802,0.062641
3.582578,0.062797
3.586350,0.062959
3.590118,0.063124
3.593882,0.063291
3.597642,0.063462
3.601398,0.063642
3.605151,0.063827
3.608899,0.064010
3.612643,0.064184
3.616383,0.064345
3.620120,0.064492
3.623852,0.064626
3.627580,0.064749
3.631305,0.064860
3.635026,0.064958
3.638743,0.065039
3.642456,0.065108
3.646165,0.065172
3.649870,0.065249
3.653572,0.065354
3.657269,0.065494
3.660963,0.065659
3.664653,0.065825
3.668340,0.065972
3.672022,0.066095
3.675701,0.066214
3.679376,0.066360
3.683047,0.066547
3.686715,0.066758
3.690378,0.066960
3.694038,0.067145
3.697695,0.067347
3.701347,0.067617
3.704996,0.067982
3.708642,0.068428
3.712283,0.068923
3.715921,0.069434
3.719556,0.069934
3.723186,0.070389
3.726814,0.070764
3.730437,0.071043
3.734057,0.071249
3.737673,0.071451
3.741286,0.071736
3.744895,0.072156
3.748501,0.072703
3.752103,0.073320
3.755701,0.073945
3.759296,0.074539
3.762887,0.075082
3.766475,0.075569
3.770060,0.076005
3.773640,0.076406
3.777218,0.076793
3.780792,0.077174
3.784362,0.077548
3.787929,0.077909
3.791493,0.078257
3.795053,0.078592
3.798609,0.078913
3.802162,0.079211
3.805712,0.079481
3.809259,0.079727
3.812801,0.079957
3.816341,0.080184
3.819877,0.080410
3.823410,0.080631
3.826939,0.080837
3.830466,0.081030
3.833988,0.081223
3.837508,0.081431
3.841024,0.081660
3.844537,0.081906
3.848046,0.082158
3.851552,0.082412
3.855055,0.082671
3.858554,0.082954
3.862051,0.083272
3.865544,0.083646
3.869033,0.084071
3.872520,0.084537
3.876003,0.085025
3.879483,0.085525
3.882960,0.086037
3.886433,0.086572
3.889904,0.087134
3.893371,0.087723
3.896835,0.088332
3.900295,0.088960
3.903753,0.089602
3.907207,0.090249
3.910659,0.090893
3.914107,0.091535
3.917551,0.092170
3.920993,0.092813
3.924432,0.093451
3.927867,0.094084
3.931300,0.094708
3.934729,0.095321
3.938155,0.095919
3.941578,0.096494
3.944998,0.097042
3.948415,0.097571
3.951829,0.098096
3.955239,0.098630
3.958647,0.099173
3.962052,0.099716
3.965453,0.100237
3.968852,0.100723
3.972247,0.101158
3.975640,0.101556
3.979029,0.101907
3.982416,0.102223
3.985799,0.102517
3.989180,0.102803
3.992557,0.103101
3.995932,0.103421
3.999303,0.103761
4.002672,0.104104
4.006037,0.104422
4.009400,0.104699
4.012760,0.104949
4.016116,0.105207
4.019470,0.105495
4.022821,0.105817
4.026169,0.106150
4.029514,0.106474
4.032856,0.106774
4.036196,0.107039
4.039532,0.107263
4.042866,0.107450
4.046196,0.107628
4.049524,0.107854
4.052849,0.108176
4.056171,0.108602
4.059490,0.109094
4.062807,0.109605
4.066120,0.110112
4.069431,0.110621
4.072739,0.111139
4.076044,0.111661
4.079346,0.112178
4.082646,0.112691
4.085942,0.113212
4.089236,0.113760
4.092527,0.114341
4.095815,0.114947
4.099101,0.115559
4.102384,0.116162
4.105664,0.116750
4.108941,0.117333
4.112216,0.117926
4.115487,0.118534
4.118756,0.119147
4.122023,0.119750
4.125286,0.120330
4.128547,0.120886
4.131805,0.121425
4.135061,0.121955
4.138314,0.122479
4.141564,0.123003
4.144811,0.123538
4.148056,0.124098
4.151298,0.124698
4.154537,0.125340
4.157774,0.126013
4.161008,0.126705
4.164239,0.127409
4.167468,0.128134
4.170694,0.128896
4.173918,0.129714
4.177139,0.130600
4.180357,0.131554
4.183573,0.132568
4.186786,0.133620
4.189996,0.134694
4.193204,0.135777
4.196409,0.136860
4.199612,0.137952
4.202812,0.139077
4.206009,0.140257
4.209204,0.141491
4.212397,0.142745
4.215587,0.143977
4.218774,0.145157
4.221959,0.146271
4.225141,0.147316
4.228320,0.148287
4.231497,0.149173
4.234672,0.149983
4.237844,0.150718
4.241014,0.151400
4.244181,0.152054
4.247345,0.152697
4.250507,0.153331
4.253667,0.153944
4.256824,0.154527
4.259979,0.155083
4.263131,0.155624
4.266280,0.156161
4.269427,0.156695
4.272572,0.157226
4.275714,0.157742
4.278854,0.158244
4.281992,0.158678
4.285127,0.159003
4.288259,0.159154
4.291389,0.159159
4.294517,0.159148
4.297642,0.159303
4.300765,0.159734
4.303885,0.160418
4.307003,0.161241
4.310119,0.162091
4.313232,0.162910
4.316343,0.163686
4.319451,0.164428
4.322557,0.165147
4.325661,0.165845
4.328762,0.166535
4.331861,0.167196
4.334958,0.167838
4.338052,0.168394
4.341144,0.168808
4.344233,0.169039
4.347321,0.169137
4.350405,0.169250
4.353488,0.169551
4.356568,0.170127
4.359646,0.170940
4.362722,0.171892
4.365795,0.172908
4.368866,0.173963
4.371934,0.175060
4.375001,0.176198
4.378065,0.177385
4.381126,0.178608
4.384186,0.179856
4.387243,0.181111
4.390298,0.182347
4.393351,0.183526
4.396401,0.184596
4.399449,0.185511
4.402495,0.186275
4.405539,0.186972
4.408580,0.187750
4.411619,0.188730
4.414656,0.189936
4.417691,0.191291
4.420723,0.192686
4.423753,0.194033
4.426781,0.195283
4.429807,0.196410
4.432831,0.197425
4.435852,0.198350
4.438871,0.199206
4.441888,0.200002
4.444903,0.200746
4.447915,0.201443
4.450926,0.202095
4.453934,0.202675
4.456940,0.203131
4.459944,0.203424
4.462945,0.203587
4.465945,0.203751
4.468942,0.204076
4.471937,0.204659
4.474930,0.205497
4.477921,0.206509
4.480910,0.207589
4.483897,0.208651
4.486881,0.209648
4.489863,0.210591
4.492844,0.211530
4.495822,0.212500
4.498798,0.213489
4.501772,0.214451
4.504743,0.215366
4.507713,0.216252
4.510680,0.217132
4.513646,0.217978
4.516609,0.218716
4.519570,0.219293
4.522530,0.219756
4.525487,0.220264
4.528442,0.220976
4.531395,0.221954
4.534345,0.223121
4.537294,0.224335
4.540241,0.225487
4.543186,0.226556
4.546128,0.227595
4.549069,0.228676
4.552007,0.229825
4.554944,0.231004
4.557878,0.232140
4.560810,0.233185
4.563741,0.234162
4.566669,0.235138
4.569595,0.236157
4.572520,0.237205
4.575442,0.238194
4.578362,0.239063
4.581280,0.239820
4.584197,0.240563
4.587111,0.241419
4.590023,0.242474
4.592933,0.243724
4.595842,0.245101
4.598748,0.246523
4.601652,0.247930
4.604554,0.249294
4.607455,0.250607
4.610353,0.251873
4.613249,0.253103
4.616144,0.254311
4.619036,0.255536
4.621927,0.256788
4.624815,0.258072
4.627702,0.259352
4.630586,0.260570
4.633469,0.261672
4.636350,0.262634
4.639229,0.263464
4.642105,0.264179
4.644980,0.264821
4.647853,0.265476
4.650724,0.266257
4.653594,0.267243
4.656461,0.268420
4.659326,0.269726
4.662190,0.271032
4.665051,0.272310
4.667911,0.273520
4.670768,0.274672
4.673624,0.275775
4.676478,0.276854
4.679330,0.277953
4.682180,0.279109
4.685029,0.280313
4.687875,0.281515
4.690720,0.282676
4.693562,0.283798
4.696403,0.284923
4.699242,0.286088
4.702079,0.287289
4.704914,0.288501
4.707747,0.289654
4.710579,0.290815
4.713408,0.292044
4.716236,0.293459
4.719062,0.295086
4.721886,0.296832
4.724708,0.298536
4.727529,0.300079
4.730347,0.301452
4.733164,0.302740
4.735979,0.304044
4.738792,0.305413
4.741604,0.306821
4.744413,0.308205
4.747221,0.309504
4.750027,0.310720
4.752831,0.311870
4.755633,0.312983
4.758433,0.314041
4.761232,0.315015
4.764029,0.315905
4.766824,0.316744
4.769617,0.317560
4.772409,0.318355
4.775199,0.319144
4.777987,0.319966
4.780773,0.320865
4.783557,0.321855
4.786340,0.322907
4.789121,0.323969
4.791900,0.325015
4.794677,0.326070
4.797453,0.327164
4.800226,0.328328
4.802999,0.329594
4.805769,0.330980
4.808538,0.332459
4.811304,0.333992
4.814069,0.335550
4.816833,0.337103
4.819595,0.338614
4.822354,0.340092
4.825113,0.341578
4.827869,0.343089
4.830624,0.344596
4.833377,0.346052
4.836128,0.347408
4.838878,0.348624
4.841626,0.349708
4.844372,0.350746
4.847116,0.351821
4.849859,0.352947
4.852600,0.354103
4.855340,0.355278
4.858077,0.356446
4.860813,0.357570
4.863548,0.358653
4.866280,0.359733
4.869011,0.360815
4.871740,0.361909
4.874468,0.363089
4.877194,0.364438
4.879918,0.365944
4.882641,0.367543
4.885362,0.369222
4.888081,0.370970
4.890799,0.372726
4.893514,0.374408
4.896229,0.375999
4.898941,0.377515
4.901652,0.378930
4.904362,0.380204
4.907069,0.381356
4.909775,0.382445
4.912480,0.383517
4.915183,0.384626
4.917884,0.385828
4.920583,0.387107
4.923281,0.388360
4.925977,0.389491
4.928672,0.390508
4.931365,0.391424
4.934056,0.392254
4.936746,0.393010
4.939434,0.393714
4.942121,0.394389
4.944806,0.395079
4.947489,0.395835
4.950171,0.396657
4.952851,0.397507
4.955530,0.398418
4.958207,0.399502
4.960882,0.400802
4.963556,0.402217
4.966228,0.403727
4.968899,0.405336
4.971568,0.407109
4.974235,0.408913
4.976901,0.410630
4.979565,0.412279
4.982228,0.413952
4.984889,0.415657
4.987549,0.417390
4.990207,0.419262
4.992863,0.421385
4.995518,0.423658
4.998172,0.425862
5.000823,0.427924
5.003474,0.429944
5.006122,0.431963
5.008769,0.433941
5.011415,0.435776
5.014059,0.437582
5.016702,0.439418
5.019343,0.441313
5.021982,0.443216
5.024620,0.445079
5.027256,0.446938
5.029891,0.448898
5.032524,0.451017
5.035156,0.453210
5.037787,0.455328
5.040415,0.457357
5.043043,0.459403
5.045668,0.461468
5.048292,0.463361
