wave,flux
0.603108,0.076097
0.604550,0.077645
0.606002,0.078787
0.607464,0.079409
0.608936,0.079536
0.610418,0.079296
0.611910,0.078891
0.613412,0.078576
0.614925,0.078586
0.616448,0.079013
0.617982,0.079717
0.619527,0.080405
0.621083,0.080849
0.622649,0.081071
0.624227,0.081287
0.625816,0.081675
0.627416,0.082224
0.629027,0.082773
0.630651,0.083222
0.632285,0.083610
0.633932,0.084029
0.635591,0.084508
0.637261,0.085040
0.638944,0.085461
0.640639,0.085798
0.642347,0.086081
0.644067,0.086340
0.645800,0.086580
0.647546,0.086759
0.649305,0.086775
0.651077,0.086509
0.652862,0.085972
0.654660,0.085436
0.656473,0.085318
0.658299,0.085824
0.660138,0.086762
0.661992,0.087722
0.663860,0.088397
0.665742,0.088723
0.667639,0.088786
0.669551,0.088702
0.671477,0.088550
0.673418,0.088376
0.675375,0.088191
0.677346,0.087992
0.679334,0.087788
0.681337,0.087606
0.683355,0.087494
0.685390,0.087481
0.687441,0.087552
0.689508,0.087651
0.691592,0.087716
0.693692,0.087716
0.695809,0.087656
0.697944,0.087574
0.700096,0.087530
0.702265,0.087568
0.704452,0.087676
0.706657,0.087780
0.708879,0.087793
0.711120,0.087677
0.713380,0.087477
0.715658,0.087304
0.717956,0.087273
0.720272,0.087432
0.722607,0.087727
0.724963,0.088049
0.727337,0.088320
0.729732,0.088520
0.732147,0.088645
0.734583,0.088680
0.737039,0.088649
0.739516,0.088647
0.742014,0.088786
0.744533,0.089105
0.747074,0.089544
0.749637,0.090002
0.752221,0.090402
0.754828,0.090706
0.757458,0.090910
0.760110,0.091026
0.762786,0.091093
0.765484,0.091162
0.768206,0.091293
0.770952,0.091525
0.773722,0.091850
0.776516,0.092217
0.779335,0.092553
0.782178,0.092793
0.785047,0.092910
0.787941,0.092930
0.790860,0.092927
0.793805,0.092983
0.796777,0.093133
0.799775,0.093331
0.802799,0.093530
0.805850,0.093685
0.808929,0.093778
0.812035,0.093788
0.815168,0.093724
0.818330,0.093648
0.821520,0.093636
0.824739,0.093706
0.827986,0.093808
0.831262,0.093874
0.834568,0.093847
0.837903,0.093648
0.841269,0.093183
0.844664,0.092431
0.848090,0.091555
0.851547,0.090845
0.855034,0.090522
0.858553,0.090569
0.862103,0.090843
0.865686,0.091258
0.869300,0.091808
0.872946,0.092451
0.876625,0.093081
0.880337,0.093613
0.884082,0.094030
0.887860,0.094343
0.891672,0.094541
0.895517,0.094622
0.899396,0.094628
0.903310,0.094624
0.907258,0.094642
0.911241,0.094656
0.915259,0.094649
0.919311,0.094648
0.923399,0.094729
0.927523,0.094915
0.931682,0.095145
0.935877,0.095340
0.940109,0.095477
0.944376,0.095586
0.948680,0.095698
0.953020,0.095831
0.957397,0.095995
0.961810,0.096193
0.966261,0.096414
0.970749,0.096634
0.975273,0.096830
0.979835,0.096981
0.984435,0.097073
0.989071,0.097088
0.993745,0.097010
0.998457,0.096853
1.003206,0.096671
1.007992,0.096527
1.012817,0.096455
1.017678,0.096441
1.022578,0.096447
1.027514,0.096439
1.032488,0.096408
1.037500,0.096371
1.042549,0.096345
1.047635,0.096329
1.052758,0.096330
1.057919,0.096421
1.063116,0.096745
1.068350,0.097407
1.073620,0.098282
1.078927,0.098980
1.084271,0.099108
1.089650,0.098636
1.095065,0.097935
1.100516,0.097444
1.106001,0.097338
1.111522,0.097513
1.117078,0.097779
1.122668,0.098031
1.128293,0.098262
1.133951,0.098506
1.139643,0.098773
1.145368,0.099017
1.151125,0.099180
1.156915,0.099231
1.162737,0.099186
1.168591,0.099078
1.174476,0.098931
1.180391,0.098755
1.186337,0.098568
1.192313,0.098406
1.198318,0.098323
1.204351,0.098365
1.210414,0.098531
1.216504,0.098756
1.222621,0.098955
1.228766,0.099077
1.234936,0.099122
1.241132,0.099122
1.247354,0.099099
1.253600,0.099048
1.259871,0.098949
1.266165,0.098795
1.272482,0.098628
1.278821,0.098547
1.285182,0.098640
1.291565,0.098909
1.297968,0.099259
1.304391,0.099587
1.310834,0.099854
1.317295,0.100081
1.323775,0.100304
1.330272,0.100534
1.336787,0.100756
1.343318,0.100945
1.349865,0.101089
1.356428,0.101204
1.363005,0.101324
1.369596,0.101476
1.376201,0.101660
1.382819,0.101844
1.389449,0.101982
1.396091,0.102042
1.402744,0.102021
1.409409,0.101941
1.416083,0.101845
1.422766,0.101778
1.429459,0.101774
1.436160,0.101841
1.442870,0.101961
1.449586,0.102109
1.456310,0.102252
1.463040,0.102358
1.469776,0.102419
1.476517,0.102448
1.483263,0.102470
1.490014,0.102508
1.496768,0.102589
1.503526,0.102741
1.510287,0.102972
1.517050,0.103241
1.523816,0.103468
1.530583,0.103584
1.537351,0.103552
1.544120,0.103360
1.550890,0.103002
1.557660,0.102476
1.564429,0.101809
1.571197,0.101067
1.577965,0.100359
1.584730,0.099787
1.591494,0.099386
1.598256,0.099108
1.605015,0.098869
1.611771,0.098605
1.618524,0.098282
1.625274,0.097880
1.632019,0.097406
1.638761,0.096923
1.645498,0.096501
1.652230,0.096140
1.658957,0.095757
1.665679,0.095292
1.672396,0.094788
1.679106,0.094370
1.685811,0.094123
1.692509,0.094006
1.699201,0.093890
1.705886,0.093660
1.712564,0.093272
1.719235,0.092755
1.725899,0.092202
1.732555,0.091746
1.739204,0.091497
1.745844,0.091463
1.752476,0.091540
1.759100,0.091588
1.765716,0.091514
1.772323,0.091300
1.778921,0.090970
1.785511,0.090541
1.792091,0.090003
1.798662,0.089338
1.805224,0.088574
1.811776,0.087802
1.818319,0.087141
1.824852,0.086648
1.831376,0.086280
1.837889,0.085926
1.844393,0.085489
1.850886,0.084917
1.857369,0.084213
1.863842,0.083444
1.870305,0.082742
1.876757,0.082246
1.883198,0.082013
1.889629,0.081996
1.896049,0.082090
1.902459,0.082192
1.908858,0.082219
1.915245,0.082107
1.921622,0.081827
1.927988,0.081407
1.934343,0.080945
1.940687,0.080584
1.947020,0.080436
1.953341,0.080506
1.959652,0.080690
1.965951,0.080859
1.972239,0.080951
1.978516,0.080983
1.984781,0.080999
1.991035,0.081023
1.997277,0.081051
2.003509,0.081055
2.009728,0.081005
2.015937,0.080888
2.022134,0.080720
2.028319,0.080539
2.034493,0.080378
2.040656,0.080239
2.046807,0.080097
2.052946,0.079923
2.059074,0.079713
2.065191,0.079481
2.071296,0.079236
2.077389,0.078976
2.083471,0.078699
2.089542,0.078413
2.095601,0.078131
2.101649,0.077854
2.107685,0.077569
2.113710,0.077268
2.119723,0.076957
2.125725,0.076650
2.131715,0.076341
2.137694,0.076002
2.143661,0.075593
2.149618,0.075088
2.155562,0.074515
2.161496,0.073965
2.167418,0.073549
2.173329,0.073321
2.179228,0.073239
2.185117,0.073210
2.190994,0.073151
2.196859,0.073032
2.202714,0.072867
2.208557,0.072690
2.214390,0.072527
2.220211,0.072379
2.226021,0.072235
2.231820,0.072084
2.237608,0.071927
2.243384,0.071773
2.249150,0.071632
2.254905,0.071513
2.260649,0.071417
2.266382,0.071334
2.272104,0.071247
2.277816,0.071144
2.283516,0.071027
2.289206,0.070911
2.294885,0.070810
2.300553,0.070722
2.306210,0.070621
2.311857,0.070483
2.317493,0.070305
2.323119,0.070118
2.328734,0.069954
2.334339,0.069811
2.339933,0.069655
2.345516,0.069453
2.351089,0.069199
2.356652,0.068921
2.362204,0.068633
2.367746,0.068325
2.373278,0.067985
2.378799,0.067625
2.384310,0.067282
2.389811,0.066982
2.395302,0.066708
2.400783,0.066415
2.406254,0.066069
2.411714,0.065686
2.417165,0.065311
2.422605,0.064981
2.428036,0.064687
2.433456,0.064395
2.438867,0.064078
2.444268,0.063743
2.449659,0.063425
2.455041,0.063156
2.460412,0.062930
2.465774,0.062714
2.471126,0.062480
2.476469,0.062236
2.481802,0.062018
2.487126,0.061854
2.492440,0.061734
2.497744,0.061620
2.503039,0.061480
2.508325,0.061312
2.513601,0.061133
2.518868,0.060956
2.524125,0.060770
2.529373,0.060557
2.534612,0.060310
2.539842,0.060047
2.545063,0.059796
2.550274,0.059576
2.555476,0.059393
2.560670,0.059236
2.565854,0.059090
2.571029,0.058935
2.576195,0.058766
2.581353,0.058602
2.586501,0.058472
2.591641,0.058396
2.596771,0.058352
2.601893,0.058294
2.607007,0.058168
2.612111,0.057961
2.617207,0.057713
2.622294,0.057515
2.627372,0.057447
2.632442,0.057521
2.637503,0.057680
2.642556,0.057843
2.647600,0.057961
2.652636,0.058023
2.657663,0.058048
2.662682,0.058069
2.667693,0.058112
2.672695,0.058180
2.677689,0.058253
2.682675,0.058300
2.687652,0.058305
2.692621,0.058266
2.697582,0.058191
2.702535,0.058091
2.707480,0.057973
2.712417,0.057843
2.717346,0.057704
2.722266,0.057560
2.727179,0.057412
2.732084,0.057258
2.736980,0.057089
2.741869,0.056897
2.746750,0.056676
2.751623,0.056437
2.756489,0.056207
2.761346,0.056014
2.766196,0.055868
2.771038,0.055757
2.775873,0.055660
2.780700,0.055567
2.785519,0.055470
2.790330,0.055366
2.795134,0.055253
2.799931,0.055131
2.804720,0.055008
2.809501,0.054888
2.814275,0.054774
2.819042,0.054667
2.823801,0.054565
2.828553,0.054466
2.833297,0.054371
2.838034,0.054280
2.842764,0.054197
2.847487,0.054121
2.852202,0.054044
2.856911,0.053954
2.861612,0.053849
2.866305,0.053744
2.870992,0.053666
2.875672,0.053637
2.880344,0.053651
2.885010,0.053683
2.889669,0.053705
2.894320,0.053704
2.898965,0.053678
2.903602,0.053633
2.908233,0.053569
2.912857,0.053486
2.917474,0.053390
2.922084,0.053288
2.926688,0.053191
2.931284,0.053100
2.935874,0.053011
2.940457,0.052920
2.945033,0.052829
2.949603,0.052742
2.954166,0.052661
2.958723,0.052582
2.963272,0.052499
2.967816,0.052407
2.972352,0.052304
2.976882,0.052191
2.981406,0.052072
2.985923,0.051949
2.990434,0.051828
2.994938,0.051718
2.999436,0.051626
3.003927,0.051549
3.008412,0.051479
3.012891,0.051401
3.017363,0.051303
3.021829,0.051177
3.026289,0.051022
3.030743,0.050856
3.035190,0.050714
3.039631,0.050634
3.044066,0.050629
3.048495,0.050671
3.052917,0.050718
3.057334,0.050743
3.061744,0.050744
3.066149,0.050736
3.070547,0.050729
3.074939,0.050725
3.079325,0.050722
3.083705,0.050722
3.088080,0.050728
3.092448,0.050739
3.096810,0.050752
3.101167,0.050758
3.105517,0.050754
3.109862,0.050751
3.114201,0.050774
3.118534,0.050846
3.122861,0.050965
3.127182,0.051106
3.131498,0.051241
3.135808,0.051353
3.140112,0.051438
3.144410,0.051505
3.148703,0.051571
3.152990,0.051648
3.157272,0.051737
3.161548,0.051832
3.165818,0.051924
3.170082,0.052014
3.174342,0.052100
3.178595,0.052180
3.182843,0.052243
3.187086,0.052283
3.191323,0.052293
3.195554,0.052277
3.199780,0.052245
3.204001,0.052207
3.208216,0.052166
3.212426,0.052124
3.216630,0.052079
3.220829,0.052035
3.225023,0.051992
3.229211,0.051948
3.233394,0.051907
3.237572,0.051876
3.241744,0.051863
3.245912,0.051876
3.250074,0.051913
3.254230,0.051969
3.258382,0.052044
3.262528,0.052135
3.266669,0.052241
3.270805,0.052353
3.274936,0.052463
3.279062,0.052557
3.283183,0.052629
3.287298,0.052682
3.291409,0.052743
3.295514,0.052854
3.299615,0.053041
3.303710,0.053280
3.307800,0.053512
3.311886,0.053695
3.315966,0.053835
3.320042,0.053975
3.324112,0.054147
3.328178,0.054342
3.332238,0.054527
3.336294,0.054668
3.340345,0.054772
3.344391,0.054844
3.348432,0.054900
3.352469,0.054950
3.356500,0.054997
3.360527,0.055043
3.364549,0.055098
3.368566,0.055175
3.372579,0.055287
3.376586,0.055434
3.380589,0.055601
3.384588,0.055768
3.388581,0.055922
3.392570,0.056067
3.396554,0.056231
3.400534,0.056449
3.404509,0.056728
3.408479,0.057044
3.412445,0.057369
3.416406,0.057682
3.420362,0.057981
3.424314,0.058263
3.428262,0.058525
3.432204,0.058763
3.436143,0.058967
3.440077,0.059127
3.444006,0.059233
3.447931,0.059281
3.451851,0.059269
3.455767,0.059202
3.459679,0.059085
3.463586,0.058928
3.467488,0.058745
3.471386,0.058553
3.475280,0.058366
3.479170,0.058191
3.483055,0.058026
3.486936,0.057873
3.490812,0.057742
3.494684,0.057645
3.498552,0.057590
3.502415,0.057581
3.506275,0.057619
3.510130,0.057705
3.513980,0.057843
3.517827,0.058031
3.521669,0.058263
3.525507,0.058536
3.529341,0.058849
3.533170,0.059202
3.536996,0.059597
3.540817,0.060026
3.544634,0.060470
3.548447,0.060906
3.552255,0.061325
3.556060,0.061735
3.559861,0.062030
3.563657,0.062431
3.567449,0.062817
3.571238,0.063170
3.575022,0.063483
3.578802,0.063760
3.582578,0.064012
3.586350,0.064243
3.590118,0.064452
3.593882,0.064643
3.597642,0.064823
3.601398,0.064999
3.605151,0.065172
3.608899,0.065338
3.612643,0.065492
3.616383,0.065631
3.620120,0.065759
3.623852,0.065881
3.627580,0.066003
3.631305,0.066127
3.635026,0.066251
3.638743,0.066370
3.642456,0.066485
3.646165,0.066603
3.649870,0.066744
3.653572,0.066923
3.657269,0.067147
3.660963,0.067402
3.664653,0.067654
3.668340,0.067872
3.672022,0.068049
3.675701,0.068207
3.679376,0.068383
3.683047,0.068592
3.686715,0.068808
3.690378,0.068987
3.694038,0.069116
3.697695,0.069242
3.701347,0.069436
3.704996,0.069735
3.708642,0.070126
3.712283,0.070567
3.715921,0.071018
3.719556,0.071440
3.723186,0.071789
3.726814,0.072019
3.730437,0.072107
3.734057,0.072085
3.737673,0.072051
3.741286,0.072130
3.744895,0.072399
3.748501,0.072850
3.752103,0.073407
3.755701,0.073982
3.759296,0.074518
3.762887,0.074990
3.766475,0.075389
3.770060,0.075722
3.773640,0.076013
3.777218,0.076292
3.780792,0.076575
3.784362,0.076858
3.787929,0.077136
3.791493,0.077408
3.795053,0.077676
3.798609,0.077938
3.802162,0.078184
3.805712,0.078406
3.809259,0.078606
3.812801,0.078798
3.816341,0.078997
3.819877,0.079204
3.823410,0.079409
3.826939,0.079597
3.830466,0.079766
3.833988,0.079933
3.837508,0.080119
3.841024,0.080333
3.844537,0.080563
3.848046,0.080792
3.851552,0.081009
3.855055,0.081217
3.858554,0.081437
3.862051,0.081695
3.865544,0.082015
3.869033,0.082398
3.872520,0.082826
3.876003,0.083274
3.879483,0.083724
3.882960,0.084180
3.886433,0.084660
3.889904,0.085173
3.893371,0.085720
3.896835,0.086294
3.900295,0.086892
3.903753,0.087509
3.907207,0.088134
3.910659,0.088753
3.914107,0.089370
3.917551,0.089983
3.920993,0.090607
3.924432,0.091233
3.927867,0.091856
3.931300,0.092474
3.934729,0.093083
3.938155,0.093676
3.941578,0.094244
3.944998,0.094782
3.948415,0.095302
3.951829,0.095830
3.955239,0.096389
3.958647,0.096981
3.962052,0.097590
3.965453,0.098185
3.968852,0.098741
3.972247,0.099239
3.975640,0.099690
3.979029,0.100087
3.982416,0.100445
3.985799,0.100781
3.989180,0.101120
3.992557,0.101490
3.995932,0.101907
3.999303,0.102368
4.002672,0.102840
4.006037,0.103277
4.009400,0.103655
4.012760,0.103995
4.016116,0.104348
4.019470,0.104753
4.022821,0.105209
4.026169,0.105682
4.029514,0.106135
4.032856,0.106542
4.036196,0.106888
4.039532,0.107158
4.042866,0.107356
4.046196,0.107529
4.049524,0.107757
4.052849,0.108116
4.056171,0.108613
4.059490,0.109186
4.062807,0.109759
4.066120,0.110297
4.069431,0.110806
4.072739,0.111293
4.076044,0.111751
4.079346,0.112167
4.082646,0.112547
4.085942,0.112917
4.089236,0.113310
4.092527,0.113740
4.095815,0.114200
4.099101,0.114668
4.102384,0.115127
4.105664,0.115576
4.108941,0.116035
4.112216,0.116529
4.115487,0.117070
4.118756,0.117651
4.122023,0.118255
4.125286,0.118871
4.128547,0.119501
4.131805,0.120153
4.135061,0.120830
4.138314,0.121528
4.141564,0.122246
4.144811,0.122987
4.148056,0.123764
4.151298,0.124586
4.154537,0.125445
4.157774,0.126319
4.161008,0.127184
4.164239,0.128025
4.167468,0.128844
4.170694,0.129653
4.173918,0.130467
4.177139,0.131292
4.180357,0.132119
4.183573,0.132942
4.186786,0.133746
4.189996,0.134522
4.193204,0.135265
4.196409,0.135975
4.199612,0.136672
4.202812,0.137390
4.206009,0.138163
4.209204,0.138991
4.212397,0.139849
4.215587,0.140701
4.218774,0.141523
4.221959,0.142312
4.225141,0.143074
4.228320,0.143812
4.231497,0.144524
4.234672,0.145219
4.237844,0.145892
4.241014,0.146560
4.244181,0.147238
4.247345,0.147937
4.250507,0.148651
4.253667,0.149366
4.256824,0.150068
4.259979,0.150757
4.263131,0.151437
4.266280,0.152111
4.269427,0.152779
4.272572,0.153433
4.275714,0.154061
4.278854,0.154664
4.281992,0.155198
4.285127,0.155645
4.288259,0.155964
4.291389,0.156185
4.294517,0.156402
4.297642,0.156727
4.300765,0.157221
4.303885,0.157861
4.307003,0.158571
4.310119,0.159284
4.313232,0.159969
4.316343,0.160623
4.319451,0.161255
4.322557,0.161872
4.325661,0.162475
4.328762,0.163079
4.331861,0.163664
4.334958,0.164256
4.338052,0.164810
4.341144,0.165316
4.344233,0.165765
4.347321,0.166186
4.350405,0.166638
4.353488,0.167180
4.356568,0.167833
4.359646,0.168576
4.362722,0.169372
4.365795,0.170197
4.368866,0.171044
4.371934,0.171916
4.375001,0.172812
4.378065,0.173742
4.381126,0.174698
4.384186,0.175679
4.387243,0.176680
4.390298,0.177696
4.393351,0.178720
4.396401,0.179746
4.399449,0.180773
4.402495,0.181803
4.405539,0.182847
4.408580,0.183912
4.411619,0.184998
4.414656,0.186092
4.417691,0.187176
4.420723,0.188237
4.423753,0.189266
4.426781,0.190265
4.429807,0.191229
4.432831,0.192161
4.435852,0.193065
4.438871,0.193942
4.441888,0.194794
4.444903,0.195624
4.447915,0.196432
4.450926,0.197222
4.453934,0.198000
4.456940,0.198780
4.459944,0.199574
4.462945,0.200386
4.465945,0.201197
4.468942,0.201976
4.471937,0.202700
4.474930,0.203363
4.477921,0.203981
4.480910,0.204573
4.483897,0.205166
4.486881,0.205775
4.489863,0.206403
4.492844,0.207039
4.495822,0.207673
4.498798,0.208311
4.501772,0.208970
4.504743,0.209660
4.507713,0.210377
4.510680,0.211117
4.513646,0.211891
4.516609,0.212732
4.519570,0.213666
4.522530,0.214679
4.525487,0.215712
4.528442,0.216685
4.531395,0.217565
4.534345,0.218381
4.537294,0.219195
4.540241,0.220059
4.543186,0.220987
4.546128,0.221954
4.549069,0.222926
4.552007,0.223886
4.554944,0.224855
4.557878,0.225874
4.560810,0.226970
4.563741,0.228137
4.566669,0.229336
4.569595,0.230538
4.572520,0.231764
4.575442,0.233045
4.578362,0.234423
4.581280,0.235891
4.584197,0.237385
4.587111,0.238816
4.590023,0.240120
4.592933,0.241289
4.595842,0.242358
4.598748,0.243376
4.601652,0.244376
4.604554,0.245376
4.607455,0.246375
4.610353,0.247367
4.613249,0.248338
4.616144,0.249265
4.619036,0.250156
4.621927,0.250976
4.624815,0.251739
4.627702,0.252478
4.630586,0.253247
4.633469,0.254098
4.636350,0.255059
4.639229,0.256135
4.642105,0.257322
4.644980,0.258595
4.647853,0.259893
4.650724,0.261126
4.653594,0.262231
4.656461,0.263206
4.659326,0.264164
4.662190,0.265140
4.665051,0.266238
4.667911,0.267423
4.670768,0.268703
4.673624,0.270065
4.676478,0.271480
4.679330,0.272901
4.682180,0.274289
4.685029,0.275644
4.687875,0.277004
4.690720,0.278403
4.693562,0.279830
4.696403,0.281244
4.699242,0.282598
4.702079,0.283878
4.704914,0.285148
4.707747,0.286389
4.710579,0.287661
4.713408,0.288804
4.716236,0.289738
4.719062,0.290438
4.721886,0.290999
4.724708,0.291584
4.727529,0.292321
4.730347,0.293226
4.733164,0.294216
4.735979,0.295192
4.738792,0.296106
4.741604,0.296986
4.744413,0.297902
4.747221,0.298910
4.750027,0.300045
4.752831,0.301261
4.755633,0.302534
4.758433,0.303882
4.761232,0.305338
4.764029,0.306901
4.766824,0.308534
4.769617,0.310207
4.772409,0.311916
4.775199,0.313643
4.777987,0.315344
4.780773,0.316969
4.783557,0.318499
4.786340,0.319967
4.789121,0.321429
4.791900,0.322909
4.794677,0.324398
4.797453,0.325842
4.800226,0.327209
4.802999,0.328460
4.805769,0.329573
4.808538,0.330574
4.811304,0.331508
4.814069,0.332407
4.816833,0.333307
4.819595,0.334246
4.822354,0.335218
4.825113,0.336167
4.827869,0.337073
4.830624,0.337970
4.833377,0.338913
4.836128,0.339953
4.838878,0.341150
4.841626,0.342493
4.844372,0.343881
4.847116,0.345219
4.849859,0.346498
4.852600,0.347748
4.855340,0.348989
4.858077,0.350259
4.860813,0.351613
4.863548,0.353051
4.866280,0.354535
4.869011,0.356063
4.871740,0.357633
4.874468,0.359153
4.877194,0.360527
4.879918,0.361772
4.882641,0.362972
4.885362,0.364156
4.888081,0.365296
4.890799,0.366464
4.893514,0.367747
4.896229,0.369150
4.898941,0.370636
4.901652,0.372224
4.904362,0.373946
4.907069,0.375763
4.909775,0.377582
4.912480,0.379324
4.915183,0.380900
4.917884,0.382218
4.920583,0.383279
4.923281,0.384203
4.925977,0.385085
4.928672,0.385977
4.931365,0.386843
4.934056,0.387714
4.936746,0.388603
4.939434,0.389513
4.942121,0.390444
4.944806,0.391368
4.947489,0.392247
4.950171,0.393112
4.952851,0.394046
4.955530,0.395035
4.958207,0.395959
4.960882,0.396790
4.963556,0.397641
4.966228,0.398735
4.968899,0.399901
4.971568,0.401177
4.974235,0.402636
4.976901,0.404446
4.979565,0.406552
4.982228,0.408806
4.984889,0.411170
4.987549,0.413624
4.990207,0.415987
4.992863,0.418080
4.995518,0.420012
4.998172,0.422065
5.000823,0.424314
5.003474,0.426594
5.006122,0.428781
5.008769,0.431030
5.011415,0.433291
5.014059,0.435590
5.016702,0.437716
5.019343,0.439683
5.021982,0.441576
5.024620,0.443472
5.027256,0.445333
5.029891,0.447020
5.032524,0.448460
5.035156,0.449786
5.037787,0.451220
5.040415,0.452796
5.043043,0.454372
5.045668,0.455958
5.048292,0.457811
