wave,flux
0.603108,0.101098
0.604550,0.100893
0.606002,0.100863
0.607464,0.101093
0.608936,0.101561
0.610418,0.102177
0.611910,0.102817
0.613412,0.103336
0.614925,0.103619
0.616448,0.103650
0.617982,0.103544
0.619527,0.103490
0.621083,0.103614
0.622649,0.103907
0.624227,0.104256
0.625816,0.104605
0.627416,0.104954
0.629027,0.105373
0.630651,0.105889
0.632285,0.106471
0.633932,0.107067
0.635591,0.107658
0.637261,0.108250
0.638944,0.108865
0.640639,0.109491
0.642347,0.110105
0.644067,0.110686
0.645800,0.111224
0.647546,0.111720
0.649305,0.112185
0.651077,0.112627
0.652862,0.113029
0.654660,0.113325
0.656473,0.113460
0.658299,0.113435
0.660138,0.113311
0.661992,0.113162
0.663860,0.113024
0.665742,0.112898
0.667639,0.112769
0.669551,0.112624
0.671477,0.112462
0.673418,0.112283
0.675375,0.112093
0.677346,0.111895
0.679334,0.111694
0.681337,0.111494
0.683355,0.111306
0.685390,0.111133
0.687441,0.110978
0.689508,0.110837
0.691592,0.110705
0.693692,0.110574
0.695809,0.110442
0.697944,0.110312
0.700096,0.110193
0.702265,0.110093
0.704452,0.110015
0.706657,0.109945
0.708879,0.109864
0.711120,0.109761
0.713380,0.109643
0.715658,0.109534
0.717956,0.109469
0.720272,0.109466
0.722607,0.109517
0.724963,0.109594
0.727337,0.109672
0.729732,0.109744
0.732147,0.109804
0.734583,0.109845
0.737039,0.109872
0.739516,0.109919
0.742014,0.110030
0.744533,0.110226
0.747074,0.110488
0.749637,0.110777
0.752221,0.111058
0.754828,0.111313
0.757458,0.111535
0.760110,0.111727
0.762786,0.111899
0.765484,0.112075
0.768206,0.112281
0.770952,0.112538
0.773722,0.112843
0.776516,0.113169
0.779335,0.113475
0.782178,0.113723
0.785047,0.113891
0.787941,0.113990
0.790860,0.114057
0.793805,0.114140
0.796777,0.114251
0.799775,0.114383
0.802799,0.114488
0.805850,0.114546
0.808929,0.114546
0.812035,0.114474
0.815168,0.114337
0.818330,0.114178
0.821520,0.114049
0.824739,0.113967
0.827986,0.113903
0.831262,0.113812
0.834568,0.113653
0.837903,0.113371
0.841269,0.112896
0.844664,0.112208
0.848090,0.111420
0.851547,0.110761
0.855034,0.110396
0.858553,0.110322
0.862103,0.110437
0.865686,0.110676
0.869300,0.111035
0.872946,0.111484
0.876625,0.111935
0.880337,0.112319
0.884082,0.112617
0.887860,0.112834
0.891672,0.112956
0.895517,0.112980
0.899396,0.112934
0.903310,0.112872
0.907258,0.112817
0.911241,0.112751
0.915259,0.112652
0.919311,0.112548
0.923399,0.112507
0.927523,0.112552
0.931682,0.112634
0.935877,0.112683
0.940109,0.112679
0.944376,0.112650
0.948680,0.112629
0.953020,0.112632
0.957397,0.112672
0.961810,0.112755
0.966261,0.112873
0.970749,0.113005
0.975273,0.113131
0.979835,0.113237
0.984435,0.113305
0.989071,0.113316
0.993745,0.113252
0.998457,0.113122
1.003206,0.112975
1.007992,0.112871
1.012817,0.112839
1.017678,0.112866
1.022578,0.112910
1.027514,0.112934
1.032488,0.112927
1.037500,0.112902
1.042549,0.112873
1.047635,0.112832
1.052758,0.112777
1.057919,0.112764
1.063116,0.112914
1.068350,0.113322
1.073620,0.113894
1.078927,0.114308
1.084271,0.114244
1.089650,0.113692
1.095065,0.112981
1.100516,0.112483
1.106001,0.112333
1.111522,0.112422
1.117078,0.112579
1.122668,0.112715
1.128293,0.112842
1.133951,0.113004
1.139643,0.113215
1.145368,0.113433
1.151125,0.113596
1.156915,0.113668
1.162737,0.113660
1.168591,0.113604
1.174476,0.113522
1.180391,0.113420
1.186337,0.113313
1.192313,0.113235
1.198318,0.113241
1.204351,0.113376
1.210414,0.113632
1.216504,0.113939
1.222621,0.114203
1.228766,0.114364
1.234936,0.114420
1.241132,0.114399
1.247354,0.114327
1.253600,0.114201
1.259871,0.114003
1.266165,0.113727
1.272482,0.113423
1.278821,0.113198
1.285182,0.113148
1.291565,0.113275
1.297968,0.113486
1.304391,0.113672
1.310834,0.113795
1.317295,0.113881
1.323775,0.113971
1.330272,0.114079
1.336787,0.114192
1.343318,0.114287
1.349865,0.114353
1.356428,0.114404
1.363005,0.114475
1.369596,0.114594
1.376201,0.114758
1.382819,0.114934
1.389449,0.115076
1.396091,0.115148
1.402744,0.115147
1.409409,0.115097
1.416083,0.115039
1.422766,0.115020
1.429459,0.115072
1.436160,0.115202
1.442870,0.115391
1.449586,0.115611
1.456310,0.115830
1.463040,0.116015
1.469776,0.116155
1.476517,0.116265
1.483263,0.116366
1.490014,0.116480
1.496768,0.116631
1.503526,0.116845
1.510287,0.117127
1.517050,0.117433
1.523816,0.117688
1.530583,0.117823
1.537351,0.117804
1.544120,0.117619
1.550890,0.117264
1.557660,0.116737
1.564429,0.116070
1.571197,0.115322
1.577965,0.114594
1.584730,0.113980
1.591494,0.113510
1.598256,0.113138
1.605015,0.112790
1.611771,0.112411
1.618524,0.111975
1.625274,0.111464
1.632019,0.110890
1.638761,0.110310
1.645498,0.109786
1.652230,0.109317
1.658957,0.108839
1.665679,0.108303
1.672396,0.107747
1.679106,0.107273
1.685811,0.106948
1.692509,0.106733
1.699201,0.106526
1.705886,0.106235
1.712564,0.105830
1.719235,0.105334
1.725899,0.104820
1.732555,0.104387
1.739204,0.104113
1.745844,0.103996
1.752476,0.103956
1.759100,0.103886
1.765716,0.103720
1.772323,0.103445
1.778921,0.103082
1.785511,0.102645
1.792091,0.102128
1.798662,0.101525
1.805224,0.100854
1.811776,0.100179
1.818319,0.099575
1.824852,0.099076
1.831376,0.098651
1.837889,0.098230
1.844393,0.097754
1.850886,0.097199
1.857369,0.096569
1.863842,0.095907
1.870305,0.095294
1.876757,0.094803
1.883198,0.094461
1.889629,0.094236
1.896049,0.094069
1.902459,0.093905
1.908858,0.093703
1.915245,0.093435
1.921622,0.093093
1.927988,0.092697
1.934343,0.092296
1.940687,0.091956
1.947020,0.091723
1.953341,0.091593
1.959652,0.091516
1.965951,0.091438
1.972239,0.091334
1.978516,0.091214
1.984781,0.091094
1.991035,0.090982
1.997277,0.090876
2.003509,0.090765
2.009728,0.090638
2.015937,0.090492
2.022134,0.090333
2.028319,0.090171
2.034493,0.090015
2.040656,0.089863
2.046807,0.089707
2.052946,0.089536
2.059074,0.089351
2.065191,0.089153
2.071296,0.088941
2.077389,0.088720
2.083471,0.088485
2.089542,0.088240
2.095601,0.087987
2.101649,0.087727
2.107685,0.087459
2.113710,0.087181
2.119723,0.086898
2.125725,0.086609
2.131715,0.086317
2.137694,0.086020
2.143661,0.085718
2.149618,0.085414
2.155562,0.085114
2.161496,0.084823
2.167418,0.084540
2.173329,0.084267
2.179228,0.083990
2.185117,0.083709
2.190994,0.083428
2.196859,0.083150
2.202714,0.082875
2.208557,0.082604
2.214390,0.082333
2.220211,0.082064
2.226021,0.081797
2.231820,0.081534
2.237608,0.081275
2.243384,0.081020
2.249150,0.080762
2.254905,0.080512
2.260649,0.080254
2.266382,0.080004
2.272104,0.079755
2.277816,0.079513
2.283516,0.079278
2.289206,0.079047
2.294885,0.078815
2.300553,0.078581
2.306210,0.078351
2.311857,0.078135
2.317493,0.077933
2.323119,0.077735
2.328734,0.077528
2.334339,0.077309
2.339933,0.077089
2.345516,0.076886
2.351089,0.076691
2.356652,0.076511
2.362204,0.076322
2.367746,0.076133
2.373278,0.075952
2.378799,0.075771
2.384310,0.075573
2.389811,0.075343
2.395302,0.075086
2.400783,0.074828
2.406254,0.074587
2.411714,0.074357
2.417165,0.074112
2.422605,0.073830
2.428036,0.073513
2.433456,0.073189
2.438867,0.072869
2.444268,0.072553
2.449659,0.072222
2.455041,0.071856
2.460412,0.071457
2.465774,0.071052
2.471126,0.070660
2.476469,0.070280
2.481802,0.069886
2.487126,0.069458
2.492440,0.069004
2.497744,0.068553
2.503039,0.068133
2.508325,0.067748
2.513601,0.067385
2.518868,0.067039
2.524125,0.066717
2.529373,0.066437
2.534612,0.066208
2.539842,0.066016
2.545063,0.065837
2.550274,0.065655
2.555476,0.065465
2.560670,0.065277
2.565854,0.065106
2.571029,0.064972
2.576195,0.064883
2.581353,0.064823
2.586501,0.064761
2.591641,0.064682
2.596771,0.064604
2.601893,0.064580
2.607007,0.064663
2.612111,0.064868
2.617207,0.065147
2.622294,0.065400
2.627372,0.065530
2.632442,0.065515
2.637503,0.065411
2.642556,0.065298
2.647600,0.065230
2.652636,0.065214
2.657663,0.065224
2.662682,0.065217
2.667693,0.065158
2.672695,0.065035
2.677689,0.064867
2.682675,0.064682
2.687652,0.064507
2.692621,0.064344
2.697582,0.064190
2.702535,0.064037
2.707480,0.063880
2.712417,0.063715
2.717346,0.063544
2.722266,0.063365
2.727179,0.063182
2.732084,0.063003
2.736980,0.062841
2.741869,0.062715
2.746750,0.062637
2.751623,0.062598
2.756489,0.062564
2.761346,0.062498
2.766196,0.062393
2.771038,0.062256
2.775873,0.062113
2.780700,0.061979
2.785519,0.061861
2.790330,0.061763
2.795134,0.061686
2.799931,0.061627
2.804720,0.061575
2.809501,0.061518
2.814275,0.061453
2.819042,0.061376
2.823801,0.061286
2.828553,0.061175
2.833297,0.061068
2.838034,0.060932
2.842764,0.060782
2.847487,0.060612
2.852202,0.060438
2.856911,0.060282
2.861612,0.060150
2.866305,0.060021
2.870992,0.059853
2.875672,0.059613
2.880344,0.059311
2.885010,0.058990
2.889669,0.058695
2.894320,0.058452
2.898965,0.058263
2.903602,0.058119
2.908233,0.058039
2.912857,0.057998
2.917474,0.058011
2.922084,0.058043
2.926688,0.058080
2.931284,0.058116
2.935874,0.058153
2.940457,0.058195
2.945033,0.058237
2.949603,0.058266
2.954166,0.058277
2.958723,0.058274
2.963272,0.058263
2.967816,0.058250
2.972352,0.058235
2.976882,0.058208
2.981406,0.058175
2.985923,0.058106
2.990434,0.058026
2.994938,0.057900
2.999436,0.057728
3.003927,0.057518
3.008412,0.057294
3.012891,0.057084
3.017363,0.056916
3.021829,0.056810
3.026289,0.056773
3.030743,0.056779
3.035190,0.056769
3.039631,0.056678
3.044066,0.056488
3.048495,0.056250
3.052917,0.056054
3.057334,0.055947
3.061744,0.055927
3.066149,0.055964
3.070547,0.056033
3.074939,0.056125
3.079325,0.056240
3.083705,0.056369
3.088080,0.056502
3.092448,0.056632
3.096810,0.056764
3.101167,0.056908
3.105517,0.057064
3.109862,0.057208
3.114201,0.057284
3.118534,0.057247
3.122861,0.057097
3.127182,0.056876
3.131498,0.056643
3.135808,0.056437
3.140112,0.056269
3.144410,0.056127
3.148703,0.055987
3.152990,0.055831
3.157272,0.055659
3.161548,0.055493
3.165818,0.055351
3.170082,0.055240
3.174342,0.055164
3.178595,0.055138
3.182843,0.055183
3.187086,0.055321
3.191323,0.055567
3.195554,0.055916
3.199780,0.056342
3.204001,0.056825
3.208216,0.057353
3.212426,0.057921
3.216630,0.058523
3.220829,0.059154
3.225023,0.059806
3.229211,0.060478
3.233394,0.061161
3.237572,0.061837
3.241744,0.062484
3.245912,0.063085
3.250074,0.063639
3.254230,0.064151
3.258382,0.064617
3.262528,0.065040
3.266669,0.065418
3.270805,0.065762
3.274936,0.066087
3.279062,0.066410
3.283183,0.066745
3.287298,0.067081
3.291409,0.067360
3.295514,0.067499
3.299615,0.067446
3.303710,0.067241
3.307800,0.066993
3.311886,0.066781
3.315966,0.066587
3.320042,0.066326
3.324112,0.065932
3.328178,0.065437
3.332238,0.064911
3.336294,0.064424
3.340345,0.063989
3.344391,0.063598
3.348432,0.063237
3.352469,0.062899
3.356500,0.062590
3.360527,0.062318
3.364549,0.062078
3.368566,0.061855
3.372579,0.061638
3.376586,0.061442
3.380589,0.061294
3.384588,0.061274
3.388581,0.061382
3.392570,0.061622
3.396554,0.061910
3.400534,0.062172
3.404509,0.062375
3.408479,0.062546
3.412445,0.062724
3.416406,0.062923
3.420362,0.063138
3.424314,0.063353
3.428262,0.063555
3.432204,0.063738
3.436143,0.063901
3.440077,0.064045
3.444006,0.064164
3.447931,0.064269
3.451851,0.064326
3.455767,0.064366
3.459679,0.064375
3.463586,0.064364
3.467488,0.064324
3.471386,0.064244
3.475280,0.064117
3.479170,0.063952
3.483055,0.063766
3.486936,0.063577
3.490812,0.063386
3.494684,0.063190
3.498552,0.062992
3.502415,0.062804
3.506275,0.062639
3.510130,0.062525
3.513980,0.062444
3.517827,0.062426
3.521669,0.062434
3.525507,0.062473
3.529341,0.062533
3.533170,0.062600
3.536996,0.062657
3.540817,0.062706
3.544634,0.062768
3.548447,0.062870
3.552255,0.063012
3.556060,0.063170
3.559861,0.063369
3.563657,0.063489
3.567449,0.063595
3.571238,0.063712
3.575022,0.063837
3.578802,0.063966
3.582578,0.064087
3.586350,0.064198
3.590118,0.064301
3.593882,0.064396
3.597642,0.064474
3.601398,0.064528
3.605151,0.064558
3.608899,0.064579
3.612643,0.064600
3.616383,0.064628
3.620120,0.064662
3.623852,0.064698
3.627580,0.064728
3.631305,0.064755
3.635026,0.064783
3.638743,0.064821
3.642456,0.064872
3.646165,0.064923
3.649870,0.064948
3.653572,0.064922
3.657269,0.064838
3.660963,0.064721
3.664653,0.064626
3.668340,0.064603
3.672022,0.064667
3.675701,0.064783
3.679376,0.064897
3.683047,0.064985
3.686715,0.065089
3.690378,0.065283
3.694038,0.065587
3.697695,0.065925
3.701347,0.066187
3.704996,0.066315
3.708642,0.066332
3.712283,0.066300
3.715921,0.066281
3.719556,0.066331
3.723186,0.066516
3.726814,0.066906
3.730437,0.067531
3.734057,0.068340
3.737673,0.069184
3.741286,0.069876
3.744895,0.070300
3.748501,0.070469
3.752103,0.070500
3.755701,0.070512
3.759296,0.070587
3.762887,0.070758
3.766475,0.071032
3.770060,0.071392
3.773640,0.071798
3.777218,0.072202
3.780792,0.072576
3.784362,0.072919
3.787929,0.073237
3.791493,0.073525
3.795053,0.073775
3.798609,0.073985
3.802162,0.074165
3.805712,0.074322
3.809259,0.074463
3.812801,0.074570
3.816341,0.074634
3.819877,0.074659
3.823410,0.074670
3.826939,0.074697
3.830466,0.074749
3.833988,0.074812
3.837508,0.074865
3.841024,0.074904
3.844537,0.074954
3.848046,0.075047
3.851552,0.075208
3.855055,0.075428
3.858554,0.075717
3.862051,0.076012
3.865544,0.076306
3.869033,0.076575
3.872520,0.076845
3.876003,0.077148
3.879483,0.077503
3.882960,0.077900
3.886433,0.078312
3.889904,0.078721
3.893371,0.079123
3.896835,0.079522
3.900295,0.079918
3.903753,0.080314
3.907207,0.080723
3.910659,0.081147
3.914107,0.081604
3.917551,0.082056
3.920993,0.082518
3.924432,0.082969
3.927867,0.083418
3.931300,0.083866
3.934729,0.084313
3.938155,0.084762
3.941578,0.085223
3.944998,0.085698
3.948415,0.086166
3.951829,0.086588
3.955239,0.086932
3.958647,0.087190
3.962052,0.087379
3.965453,0.087531
3.968852,0.087688
3.972247,0.087842
3.975640,0.088038
3.979029,0.088245
3.982416,0.088469
3.985799,0.088692
3.989180,0.088892
3.992557,0.089042
3.995932,0.089128
3.999303,0.089164
4.002672,0.089198
4.006037,0.089296
4.009400,0.089496
4.012760,0.089780
4.016116,0.090091
4.019470,0.090384
4.022821,0.090677
4.026169,0.091007
4.029514,0.091418
4.032856,0.091930
4.036196,0.092559
4.039532,0.093313
4.042866,0.094179
4.046196,0.095091
4.049524,0.095941
4.052849,0.096630
4.056171,0.097139
4.059490,0.097539
4.062807,0.097918
4.066120,0.098309
4.069431,0.098698
4.072739,0.099065
4.076044,0.099418
4.079346,0.099768
4.082646,0.100115
4.085942,0.100436
4.089236,0.100700
4.092527,0.100898
4.095815,0.101046
4.099101,0.101180
4.102384,0.101331
4.105664,0.101508
4.108941,0.101693
4.112216,0.101866
4.115487,0.102019
4.118756,0.102172
4.122023,0.102352
4.125286,0.102581
4.128547,0.102865
4.131805,0.103198
4.135061,0.103570
4.138314,0.103979
4.141564,0.104426
4.144811,0.104899
4.148056,0.105380
4.151298,0.105853
4.154537,0.106322
4.157774,0.106811
4.161008,0.107344
4.164239,0.107934
4.167468,0.108574
4.170694,0.109246
4.173918,0.109925
4.177139,0.110601
4.180357,0.111276
4.183573,0.111967
4.186786,0.112678
4.189996,0.113420
4.193204,0.114200
4.196409,0.115015
4.199612,0.115840
4.202812,0.116628
4.206009,0.117341
4.209204,0.117971
4.212397,0.118551
4.215587,0.119122
4.218774,0.119709
4.221959,0.120317
4.225141,0.120935
4.228320,0.121559
4.231497,0.122181
4.234672,0.122812
4.237844,0.123437
4.241014,0.124042
4.244181,0.124606
4.247345,0.125118
4.250507,0.125582
4.253667,0.126019
4.256824,0.126443
4.259979,0.126857
4.263131,0.127254
4.266280,0.127629
4.269427,0.127985
4.272572,0.128330
4.275714,0.128665
4.278854,0.129033
4.281992,0.129437
4.285127,0.129955
4.288259,0.130609
4.291389,0.131379
4.294517,0.132148
4.297642,0.132766
4.300765,0.133152
4.303885,0.133338
4.307003,0.133427
4.310119,0.133513
4.313232,0.133642
4.316343,0.133824
4.319451,0.134050
4.322557,0.134314
4.325661,0.134608
4.328762,0.134948
4.331861,0.135311
4.334958,0.135739
4.338052,0.136236
4.341144,0.136848
4.344233,0.137591
4.347321,0.138432
4.350405,0.139280
4.353488,0.140040
4.356568,0.140672
4.359646,0.141209
4.362722,0.141712
4.365795,0.142222
4.368866,0.142753
4.371934,0.143306
4.375001,0.143876
4.378065,0.144474
4.381126,0.145091
4.384186,0.145731
4.387243,0.146397
4.390298,0.147093
4.393351,0.147829
4.396401,0.148617
4.399449,0.149463
4.402495,0.150358
4.405539,0.151264
4.408580,0.152132
4.411619,0.152926
4.414656,0.153645
4.417691,0.154318
4.420723,0.154976
4.423753,0.155641
4.426781,0.156328
4.429807,0.157034
4.432831,0.157754
4.435852,0.158482
4.438871,0.159211
4.441888,0.159936
4.444903,0.160656
4.447915,0.161367
4.450926,0.162066
4.453934,0.162755
4.456940,0.163436
4.459944,0.164106
4.462945,0.164757
4.465945,0.165371
4.468942,0.165934
4.471937,0.166443
4.474930,0.166905
4.477921,0.167332
4.480910,0.167734
4.483897,0.168121
4.486881,0.168497
4.489863,0.168866
4.492844,0.169230
4.495822,0.169597
4.498798,0.169970
4.501772,0.170355
4.504743,0.170755
4.507713,0.171175
4.510680,0.171622
4.513646,0.172098
4.516609,0.172602
4.519570,0.173131
4.522530,0.173692
4.525487,0.174302
4.528442,0.174978
4.531395,0.175730
4.534345,0.176550
4.537294,0.177418
4.540241,0.178311
4.543186,0.179222
4.546128,0.180153
4.549069,0.181113
4.552007,0.182103
4.554944,0.183112
4.557878,0.184123
4.560810,0.185118
4.563741,0.186096
4.566669,0.187066
4.569595,0.188034
4.572520,0.188999
4.575442,0.189934
4.578362,0.190822
4.581280,0.191662
4.584197,0.192478
4.587111,0.193308
4.590023,0.194176
4.592933,0.195087
4.595842,0.196024
4.598748,0.196962
4.601652,0.197883
4.604554,0.198778
4.607455,0.199643
4.610353,0.200479
4.613249,0.201288
4.616144,0.202072
4.619036,0.202855
4.621927,0.203636
4.624815,0.204423
4.627702,0.205206
4.630586,0.205965
4.633469,0.206681
4.636350,0.207345
4.639229,0.207962
4.642105,0.208538
4.644980,0.209091
4.647853,0.209660
4.650724,0.210295
4.653594,0.211036
4.656461,0.211876
4.659326,0.212810
4.662190,0.213766
4.665051,0.214744
4.667911,0.215713
4.670768,0.216676
4.673624,0.217634
4.676478,0.218594
4.679330,0.219576
4.682180,0.220591
4.685029,0.221635
4.687875,0.222680
4.690720,0.223703
4.693562,0.224702
4.696403,0.225692
4.699242,0.226691
4.702079,0.227690
4.704914,0.228681
4.707747,0.229613
4.710579,0.230535
4.713408,0.231469
4.716236,0.232483
4.719062,0.233594
4.721886,0.234757
4.724708,0.235885
4.727529,0.236916
4.730347,0.237844
4.733164,0.238717
4.735979,0.239590
4.738792,0.240494
4.741604,0.241417
4.744413,0.242326
4.747221,0.243185
4.750027,0.244002
4.752831,0.244784
4.755633,0.245549
4.758433,0.246289
4.761232,0.246986
4.764029,0.247642
4.766824,0.248276
4.769617,0.248904
4.772409,0.249530
4.775199,0.250164
4.777987,0.250828
4.780773,0.251553
4.783557,0.252346
4.786340,0.253192
4.789121,0.254059
4.791900,0.254931
4.794677,0.255826
4.797453,0.256761
4.800226,0.257751
4.802999,0.258818
4.805769,0.259969
4.808538,0.261187
4.811304,0.262445
4.814069,0.263723
4.816833,0.264997
4.819595,0.266244
4.822354,0.267466
4.825113,0.268687
4.827869,0.269918
4.830624,0.271136
4.833377,0.272308
4.836128,0.273401
4.838878,0.274386
4.841626,0.275266
4.844372,0.276098
4.847116,0.276938
4.849859,0.277798
4.852600,0.278665
4.855340,0.279531
4.858077,0.280381
4.860813,0.281190
4.863548,0.281960
4.866280,0.282718
4.869011,0.283468
4.871740,0.284217
4.874468,0.285017
4.877194,0.285927
4.879918,0.286939
4.882641,0.288010
4.885362,0.289134
4.888081,0.290306
4.890799,0.291487
4.893514,0.292621
4.896229,0.293699
4.898941,0.294735
4.901652,0.295714
4.904362,0.296610
4.907069,0.297438
4.909775,0.298243
4.912480,0.299060
4.915183,0.299931
4.917884,0.300900
4.920583,0.301959
4.923281,0.303036
4.925977,0.304067
4.928672,0.305055
4.931365,0.306001
4.934056,0.306911
4.936746,0.307788
4.939434,0.308640
4.942121,0.309478
4.944806,0.310328
4.947489,0.311221
4.950171,0.312151
4.952851,0.313085
4.955530,0.314039
4.958207,0.315090
4.960882,0.316263
4.963556,0.317476
4.966228,0.318714
4.968899,0.319968
4.971568,0.321295
4.974235,0.322603
4.976901,0.323811
4.979565,0.324943
4.982228,0.326072
4.984889,0.327213
4.987549,0.328371
4.990207,0.329635
4.992863,0.331097
4.995518,0.332692
4.998172,0.334261
5.000823,0.335761
5.003474,0.337273
5.006122,0.338835
5.008769,0.340426
5.011415,0.341974
5.014059,0.343557
5.016702,0.345209
5.019343,0.346943
5.021982,0.348707
5.024620,0.350458
5.027256,0.352211
5.029891,0.354034
5.032524,0.355961
5.035156,0.357918
5.037787,0.359782
5.040415,0.361531
5.043043,0.363235
5.045668,0.364884
5.048292,0.366323
