wave,flux
0.603108,0.095884
0.604550,0.097348
0.606002,0.098610
0.607464,0.099648
0.608936,0.100469
0.610418,0.101104
0.611910,0.101606
0.613412,0.102052
0.614925,0.102516
0.616448,0.103040
0.617982,0.103602
0.619527,0.104127
0.621083,0.104552
0.622649,0.104885
0.624227,0.105195
0.625816,0.105550
0.627416,0.105949
0.629027,0.106341
0.630651,0.106692
0.632285,0.107014
0.633932,0.107340
0.635591,0.107683
0.637261,0.108042
0.638944,0.108354
0.640639,0.108630
0.642347,0.108881
0.644067,0.109121
0.645800,0.109353
0.647546,0.109561
0.649305,0.109703
0.651077,0.109726
0.652862,0.109633
0.654660,0.109540
0.656473,0.109635
0.658299,0.110018
0.660138,0.110612
0.661992,0.111230
0.663860,0.111727
0.665742,0.112063
0.667639,0.112272
0.669551,0.112405
0.671477,0.112496
0.673418,0.112565
0.675375,0.112615
0.677346,0.112643
0.679334,0.112648
0.681337,0.112642
0.683355,0.112651
0.685390,0.112688
0.687441,0.112751
0.689508,0.112810
0.691592,0.112834
0.693692,0.112807
0.695809,0.112732
0.697944,0.112633
0.700096,0.112547
0.702265,0.112502
0.704452,0.112496
0.706657,0.112486
0.708879,0.112423
0.711120,0.112285
0.713380,0.112101
0.715658,0.111939
0.717956,0.111876
0.720272,0.111946
0.722607,0.112117
0.724963,0.112320
0.727337,0.112505
0.729732,0.112658
0.732147,0.112774
0.734583,0.112842
0.737039,0.112876
0.739516,0.112939
0.742014,0.113107
0.744533,0.113408
0.747074,0.113805
0.749637,0.114226
0.752221,0.114619
0.754828,0.114955
0.757458,0.115228
0.760110,0.115447
0.762786,0.115633
0.765484,0.115824
0.768206,0.116061
0.770952,0.116371
0.773722,0.116750
0.776516,0.117158
0.779335,0.117539
0.782178,0.117844
0.785047,0.118049
0.787941,0.118170
0.790860,0.118262
0.793805,0.118386
0.796777,0.118564
0.799775,0.118772
0.802799,0.118960
0.805850,0.119101
0.808929,0.119179
0.812035,0.119180
0.815168,0.119112
0.818330,0.119026
0.821520,0.118984
0.824739,0.119005
0.827986,0.119052
0.831262,0.119070
0.834568,0.119013
0.837903,0.118819
0.841269,0.118408
0.844664,0.117763
0.848090,0.117017
0.851547,0.116420
0.855034,0.116157
0.858553,0.116219
0.862103,0.116486
0.865686,0.116884
0.869300,0.117407
0.872946,0.118018
0.876625,0.118625
0.880337,0.119150
0.884082,0.119577
0.887860,0.119910
0.891672,0.120138
0.895517,0.120255
0.899396,0.120295
0.903310,0.120312
0.907258,0.120332
0.911241,0.120334
0.915259,0.120295
0.919311,0.120248
0.923399,0.120259
0.927523,0.120355
0.931682,0.120482
0.935877,0.120573
0.940109,0.120608
0.944376,0.120615
0.948680,0.120629
0.953020,0.120666
0.957397,0.120740
0.961810,0.120857
0.966261,0.121008
0.970749,0.121176
0.975273,0.121339
0.979835,0.121484
0.984435,0.121596
0.989071,0.121654
0.993745,0.121641
0.998457,0.121568
1.003206,0.121481
1.007992,0.121440
1.012817,0.121473
1.017678,0.121566
1.022578,0.121679
1.027514,0.121775
1.032488,0.121845
1.037500,0.121901
1.042549,0.121955
1.047635,0.122000
1.052758,0.122033
1.057919,0.122101
1.063116,0.122315
1.068350,0.122762
1.073620,0.123358
1.078927,0.123814
1.084271,0.123845
1.089650,0.123444
1.095065,0.122909
1.100516,0.122575
1.106001,0.122558
1.111522,0.122751
1.117078,0.122993
1.122668,0.123205
1.128293,0.123400
1.133951,0.123622
1.139643,0.123882
1.145368,0.124141
1.151125,0.124339
1.156915,0.124442
1.162737,0.124461
1.168591,0.124428
1.174476,0.124364
1.180391,0.124276
1.186337,0.124179
1.192313,0.124107
1.198318,0.124113
1.204351,0.124240
1.210414,0.124484
1.216504,0.124777
1.222621,0.125029
1.228766,0.125182
1.234936,0.125236
1.241132,0.125219
1.247354,0.125154
1.253600,0.125041
1.259871,0.124860
1.266165,0.124606
1.272482,0.124328
1.278821,0.124130
1.285182,0.124106
1.291565,0.124261
1.297968,0.124501
1.304391,0.124723
1.310834,0.124889
1.317295,0.125023
1.323775,0.125167
1.330272,0.125335
1.336787,0.125514
1.343318,0.125681
1.349865,0.125824
1.356428,0.125957
1.363005,0.126112
1.369596,0.126318
1.376201,0.126571
1.382819,0.126836
1.389449,0.127066
1.396091,0.127223
1.402744,0.127304
1.409409,0.127329
1.416083,0.127340
1.422766,0.127384
1.429459,0.127492
1.436160,0.127672
1.442870,0.127904
1.449586,0.128160
1.456310,0.128404
1.463040,0.128604
1.469776,0.128751
1.476517,0.128859
1.483263,0.128953
1.490014,0.129057
1.496768,0.129198
1.503526,0.129405
1.510287,0.129687
1.517050,0.129998
1.523816,0.130260
1.530583,0.130398
1.537351,0.130376
1.544120,0.130181
1.550890,0.129808
1.557660,0.129254
1.564429,0.128551
1.571197,0.127763
1.577965,0.127004
1.584730,0.126378
1.591494,0.125921
1.598256,0.125585
1.605015,0.125283
1.611771,0.124954
1.618524,0.124563
1.625274,0.124089
1.632019,0.123543
1.638761,0.122988
1.645498,0.122497
1.652230,0.122068
1.658957,0.121623
1.665679,0.121098
1.672396,0.120538
1.679106,0.120069
1.685811,0.119773
1.692509,0.119608
1.699201,0.119445
1.705886,0.119171
1.712564,0.118740
1.719235,0.118182
1.725899,0.117589
1.732555,0.117092
1.739204,0.116795
1.745844,0.116706
1.752476,0.116720
1.759100,0.116700
1.765716,0.116554
1.772323,0.116265
1.778921,0.115857
1.785511,0.115349
1.792091,0.114730
1.798662,0.113987
1.805224,0.113146
1.811776,0.112297
1.818319,0.111553
1.824852,0.110969
1.831376,0.110503
1.837889,0.110049
1.844393,0.109518
1.850886,0.108862
1.857369,0.108086
1.863842,0.107253
1.870305,0.106489
1.876757,0.105924
1.883198,0.105608
1.889629,0.105496
1.896049,0.105489
1.902459,0.105493
1.908858,0.105429
1.915245,0.105242
1.921622,0.104905
1.927988,0.104447
1.934343,0.103957
1.940687,0.103562
1.947020,0.103363
1.953341,0.103363
1.959652,0.103465
1.965951,0.103556
1.972239,0.103579
1.978516,0.103550
1.984781,0.103509
1.991035,0.103476
1.997277,0.103447
2.003509,0.103398
2.009728,0.103304
2.015937,0.103152
2.022134,0.102958
2.028319,0.102753
2.034493,0.102567
2.040656,0.102399
2.046807,0.102228
2.052946,0.102029
2.059074,0.101800
2.065191,0.101552
2.071296,0.101291
2.077389,0.101017
2.083471,0.100727
2.089542,0.100428
2.095601,0.100130
2.101649,0.099833
2.107685,0.099526
2.113710,0.099203
2.119723,0.098871
2.125725,0.098537
2.131715,0.098198
2.137694,0.097833
2.143661,0.097410
2.149618,0.096910
2.155562,0.096355
2.161496,0.095817
2.167418,0.095378
2.173329,0.095082
2.179228,0.094891
2.185117,0.094734
2.190994,0.094551
2.196859,0.094317
2.202714,0.094046
2.208557,0.093762
2.214390,0.093485
2.220211,0.093216
2.226021,0.092947
2.231820,0.092669
2.237608,0.092384
2.243384,0.092098
2.249150,0.091816
2.254905,0.091552
2.260649,0.091298
2.266382,0.091054
2.272104,0.090806
2.277816,0.090547
2.283516,0.090280
2.289206,0.090018
2.294885,0.089769
2.300553,0.089533
2.306210,0.089295
2.311857,0.089039
2.317493,0.088765
2.323119,0.088494
2.328734,0.088246
2.334339,0.088023
2.339933,0.087800
2.345516,0.087562
2.351089,0.087299
2.356652,0.087037
2.362204,0.086773
2.367746,0.086503
2.373278,0.086218
2.378799,0.085922
2.384310,0.085636
2.389811,0.085373
2.395302,0.085120
2.400783,0.084849
2.406254,0.084539
2.411714,0.084197
2.417165,0.083849
2.422605,0.083512
2.428036,0.083178
2.433456,0.082830
2.438867,0.082448
2.444268,0.082042
2.449659,0.081631
2.455041,0.081235
2.460412,0.080853
2.465774,0.080470
2.471126,0.080073
2.476469,0.079668
2.481802,0.079278
2.487126,0.078916
2.492440,0.078581
2.497744,0.078255
2.503039,0.077925
2.508325,0.077593
2.513601,0.077267
2.518868,0.076960
2.524125,0.076665
2.529373,0.076374
2.534612,0.076083
2.539842,0.075801
2.545063,0.075540
2.550274,0.075308
2.555476,0.075107
2.560670,0.074931
2.565854,0.074773
2.571029,0.074624
2.576195,0.074482
2.581353,0.074353
2.586501,0.074251
2.591641,0.074183
2.596771,0.074138
2.601893,0.074097
2.607007,0.074040
2.612111,0.073960
2.617207,0.073872
2.622294,0.073809
2.627372,0.073800
2.632442,0.073845
2.637503,0.073919
2.642556,0.073991
2.647600,0.074040
2.652636,0.074063
2.657663,0.074063
2.662682,0.074051
2.667693,0.074034
2.672695,0.074011
2.677689,0.073972
2.682675,0.073905
2.687652,0.073805
2.692621,0.073674
2.697582,0.073515
2.702535,0.073334
2.707480,0.073135
2.712417,0.072921
2.717346,0.072695
2.722266,0.072458
2.727179,0.072214
2.732084,0.071962
2.736980,0.071703
2.741869,0.071435
2.746750,0.071158
2.751623,0.070878
2.756489,0.070603
2.761346,0.070342
2.766196,0.070098
2.771038,0.069867
2.775873,0.069644
2.780700,0.069426
2.785519,0.069212
2.790330,0.069002
2.795134,0.068793
2.799931,0.068589
2.804720,0.068390
2.809501,0.068197
2.814275,0.068012
2.819042,0.067834
2.823801,0.067664
2.828553,0.067497
2.833297,0.067346
2.838034,0.067197
2.842764,0.067059
2.847487,0.066926
2.852202,0.066797
2.856911,0.066668
2.861612,0.066538
2.866305,0.066408
2.870992,0.066284
2.875672,0.066165
2.880344,0.066051
2.885010,0.065935
2.889669,0.065811
2.894320,0.065677
2.898965,0.065530
2.903602,0.065368
2.908233,0.065198
2.912857,0.065009
2.917474,0.064813
2.922084,0.064607
2.926688,0.064395
2.931284,0.064181
2.935874,0.063966
2.940457,0.063751
2.945033,0.063539
2.949603,0.063332
2.954166,0.063132
2.958723,0.062942
2.963272,0.062762
2.967816,0.062593
2.972352,0.062440
2.976882,0.062300
2.981406,0.062183
2.985923,0.062082
2.990434,0.062007
2.994938,0.061946
2.999436,0.061903
3.003927,0.061874
3.008412,0.061857
3.012891,0.061849
3.017363,0.061846
3.021829,0.061846
3.026289,0.061848
3.030743,0.061851
3.035190,0.061855
3.039631,0.061861
3.044066,0.061867
3.048495,0.061868
3.052917,0.061863
3.057334,0.061846
3.061744,0.061818
3.066149,0.061783
3.070547,0.061742
3.074939,0.061697
3.079325,0.061650
3.083705,0.061601
3.088080,0.061553
3.092448,0.061507
3.096810,0.061465
3.101167,0.061427
3.105517,0.061395
3.109862,0.061370
3.114201,0.061356
3.118534,0.061353
3.122861,0.061365
3.127182,0.061389
3.131498,0.061423
3.135808,0.061465
3.140112,0.061512
3.144410,0.061563
3.148703,0.061616
3.152990,0.061670
3.157272,0.061722
3.161548,0.061771
3.165818,0.061814
3.170082,0.061848
3.174342,0.061873
3.178595,0.061886
3.182843,0.061885
3.187086,0.061867
3.191323,0.061832
3.195554,0.061778
3.199780,0.061709
3.204001,0.061626
3.208216,0.061533
3.212426,0.061431
3.216630,0.061323
3.220829,0.061212
3.225023,0.061099
3.229211,0.060987
3.233394,0.060879
3.237572,0.060777
3.241744,0.060684
3.245912,0.060601
3.250074,0.060531
3.254230,0.060476
3.258382,0.060440
3.262528,0.060421
3.266669,0.060418
3.270805,0.060428
3.274936,0.060449
3.279062,0.060480
3.283183,0.060517
3.287298,0.060560
3.291409,0.060606
3.295514,0.060651
3.299615,0.060694
3.303710,0.060731
3.307800,0.060763
3.311886,0.060787
3.315966,0.060801
3.320042,0.060803
3.324112,0.060788
3.328178,0.060761
3.332238,0.060723
3.336294,0.060677
3.340345,0.060627
3.344391,0.060574
3.348432,0.060523
3.352469,0.060474
3.356500,0.060431
3.360527,0.060396
3.364549,0.060373
3.368566,0.060363
3.372579,0.060369
3.376586,0.060394
3.380589,0.060437
3.384588,0.060513
3.388581,0.060610
3.392570,0.060735
3.396554,0.060879
3.400534,0.061039
3.404509,0.061212
3.408479,0.061393
3.412445,0.061579
3.416406,0.061767
3.420362,0.061952
3.424314,0.062132
3.428262,0.062303
3.432204,0.062460
3.436143,0.062600
3.440077,0.062719
3.444006,0.062810
3.447931,0.062879
3.451851,0.062912
3.455767,0.062921
3.459679,0.062902
3.463586,0.062862
3.467488,0.062802
3.471386,0.062727
3.475280,0.062640
3.479170,0.062545
3.483055,0.062444
3.486936,0.062341
3.490812,0.062240
3.494684,0.062144
3.498552,0.062056
3.502415,0.061980
3.506275,0.061917
3.510130,0.061876
3.513980,0.061851
3.517827,0.061854
3.521669,0.061872
3.525507,0.061910
3.529341,0.061965
3.533170,0.062038
3.536996,0.062127
3.540817,0.062232
3.544634,0.062352
3.548447,0.062486
3.552255,0.062633
3.556060,0.062792
3.559861,0.062948
3.563657,0.063129
3.567449,0.063318
3.571238,0.063519
3.575022,0.063726
3.578802,0.063938
3.582578,0.064152
3.586350,0.064364
3.590118,0.064573
3.593882,0.064775
3.597642,0.064967
3.601398,0.065146
3.605151,0.065309
3.608899,0.065453
3.612643,0.065576
3.616383,0.065673
3.620120,0.065743
3.623852,0.065781
3.627580,0.065785
3.631305,0.065753
3.635026,0.065685
3.638743,0.065586
3.642456,0.065463
3.646165,0.065323
3.649870,0.065173
3.653572,0.065018
3.657269,0.064867
3.660963,0.064725
3.664653,0.064597
3.668340,0.064489
3.672022,0.064406
3.675701,0.064356
3.679376,0.064346
3.683047,0.064383
3.686715,0.064473
3.690378,0.064620
3.694038,0.064824
3.697695,0.065080
3.701347,0.065385
3.704996,0.065736
3.708642,0.066126
3.712283,0.066548
3.715921,0.066993
3.719556,0.067454
3.723186,0.067923
3.726814,0.068390
3.730437,0.068848
3.734057,0.069293
3.737673,0.069724
3.741286,0.070140
3.744895,0.070542
3.748501,0.070923
3.752103,0.071279
3.755701,0.071605
3.759296,0.071900
3.762887,0.072162
3.766475,0.072393
3.770060,0.072593
3.773640,0.072767
3.777218,0.072916
3.780792,0.073044
3.784362,0.073151
3.787929,0.073238
3.791493,0.073308
3.795053,0.073361
3.798609,0.073398
3.802162,0.073420
3.805712,0.073427
3.809259,0.073425
3.812801,0.073416
3.816341,0.073405
3.819877,0.073395
3.823410,0.073389
3.826939,0.073389
3.830466,0.073399
3.833988,0.073422
3.837508,0.073466
3.841024,0.073532
3.844537,0.073624
3.848046,0.073744
3.851552,0.073894
3.855055,0.074073
3.858554,0.074299
3.862051,0.074562
3.865544,0.074873
3.869033,0.075222
3.872520,0.075606
3.876003,0.076018
3.879483,0.076453
3.882960,0.076908
3.886433,0.077379
3.889904,0.077866
3.893371,0.078364
3.896835,0.078868
3.900295,0.079375
3.903753,0.079880
3.907207,0.080378
3.910659,0.080862
3.914107,0.081336
3.917551,0.081785
3.920993,0.082223
3.924432,0.082639
3.927867,0.083037
3.931300,0.083415
3.934729,0.083774
3.938155,0.084113
3.941578,0.084430
3.944998,0.084725
3.948415,0.085000
3.951829,0.085258
3.955239,0.085502
3.958647,0.085733
3.962052,0.085949
3.965453,0.086145
3.968852,0.086321
3.972247,0.086467
3.975640,0.086602
3.979029,0.086713
3.982416,0.086810
3.985799,0.086897
3.989180,0.086981
3.992557,0.087068
3.995932,0.087164
3.999303,0.087270
4.002672,0.087385
4.006037,0.087504
4.009400,0.087626
4.012760,0.087756
4.016116,0.087906
4.019470,0.088082
4.022821,0.088290
4.026169,0.088523
4.029514,0.088775
4.032856,0.089039
4.036196,0.089309
4.039532,0.089583
4.042866,0.089857
4.046196,0.090137
4.049524,0.090436
4.052849,0.090764
4.056171,0.091121
4.059490,0.091495
4.062807,0.091871
4.066120,0.092240
4.069431,0.092602
4.072739,0.092956
4.076044,0.093298
4.079346,0.093625
4.082646,0.093940
4.085942,0.094247
4.089236,0.094554
4.092527,0.094864
4.095815,0.095179
4.099101,0.095494
4.102384,0.095807
4.105664,0.096118
4.108941,0.096434
4.112216,0.096759
4.115487,0.097097
4.118756,0.097448
4.122023,0.097810
4.125286,0.098180
4.128547,0.098561
4.131805,0.098955
4.135061,0.099361
4.138314,0.099781
4.141564,0.100213
4.144811,0.100659
4.148056,0.101122
4.151298,0.101604
4.154537,0.102105
4.157774,0.102619
4.161008,0.103141
4.164239,0.103668
4.167468,0.104200
4.170694,0.104741
4.173918,0.105294
4.177139,0.105861
4.180357,0.106441
4.183573,0.107033
4.186786,0.107629
4.189996,0.108229
4.193204,0.108828
4.196409,0.109426
4.199612,0.110028
4.202812,0.110641
4.206009,0.111275
4.209204,0.111929
4.212397,0.112596
4.215587,0.113265
4.218774,0.113928
4.221959,0.114582
4.225141,0.115228
4.228320,0.115867
4.231497,0.116494
4.234672,0.117115
4.237844,0.117722
4.241014,0.118319
4.244181,0.118910
4.247345,0.119497
4.250507,0.120076
4.253667,0.120641
4.256824,0.121185
4.259979,0.121706
4.263131,0.122204
4.266280,0.122677
4.269427,0.123124
4.272572,0.123540
4.275714,0.123916
4.278854,0.124258
4.281992,0.124535
4.285127,0.124753
4.288259,0.124891
4.291389,0.124965
4.294517,0.125018
4.297642,0.125106
4.300765,0.125263
4.303885,0.125488
4.307003,0.125755
4.310119,0.126038
4.313232,0.126327
4.316343,0.126626
4.319451,0.126941
4.322557,0.127282
4.325661,0.127651
4.328762,0.128067
4.331861,0.128515
4.334958,0.129009
4.338052,0.129514
4.341144,0.130014
4.344233,0.130497
4.347321,0.130968
4.350405,0.131461
4.353488,0.132013
4.356568,0.132640
4.359646,0.133327
4.362722,0.134042
4.365795,0.134762
4.368866,0.135475
4.371934,0.136177
4.375001,0.136862
4.378065,0.137530
4.381126,0.138171
4.384186,0.138788
4.387243,0.139383
4.390298,0.139955
4.393351,0.140501
4.396401,0.141014
4.399449,0.141490
4.402495,0.141935
4.405539,0.142375
4.408580,0.142845
4.411619,0.143377
4.414656,0.143979
4.417691,0.144638
4.420723,0.145336
4.423753,0.146056
4.426781,0.146799
4.429807,0.147555
4.432831,0.148322
4.435852,0.149100
4.438871,0.149884
4.441888,0.150672
4.444903,0.151457
4.447915,0.152234
4.450926,0.152998
4.453934,0.153737
4.456940,0.154435
4.459944,0.155080
4.462945,0.155672
4.465945,0.156228
4.468942,0.156770
4.471937,0.157308
4.474930,0.157835
4.477921,0.158334
4.480910,0.158793
4.483897,0.159206
4.486881,0.159572
4.489863,0.159901
4.492844,0.160209
4.495822,0.160508
4.498798,0.160804
4.501772,0.161097
4.504743,0.161392
4.507713,0.161698
4.510680,0.162027
4.513646,0.162382
4.516609,0.162760
4.519570,0.163160
4.522530,0.163597
4.525487,0.164097
4.528442,0.164674
4.531395,0.165331
4.534345,0.166053
4.537294,0.166815
4.540241,0.167600
4.543186,0.168402
4.546128,0.169222
4.549069,0.170065
4.552007,0.170931
4.554944,0.171810
4.557878,0.172689
4.560810,0.173559
4.563741,0.174420
4.566669,0.175274
4.569595,0.176120
4.572520,0.176963
4.575442,0.177785
4.578362,0.178583
4.581280,0.179358
4.584197,0.180121
4.587111,0.180884
4.590023,0.181652
4.592933,0.182426
4.595842,0.183197
4.598748,0.183958
4.601652,0.184702
4.604554,0.185428
4.607455,0.186134
4.610353,0.186821
4.613249,0.187489
4.616144,0.188137
4.619036,0.188781
4.621927,0.189414
4.624815,0.190044
4.627702,0.190671
4.630586,0.191295
4.633469,0.191917
4.636350,0.192540
4.639229,0.193168
4.642105,0.193806
4.644980,0.194463
4.647853,0.195145
4.650724,0.195863
4.653594,0.196625
4.656461,0.197423
4.659326,0.198281
4.662190,0.199164
4.665051,0.200100
4.667911,0.201059
4.670768,0.202047
4.673624,0.203061
4.676478,0.204098
4.679330,0.205156
4.682180,0.206234
4.685029,0.207326
4.687875,0.208427
4.690720,0.209534
4.693562,0.210642
4.696403,0.211749
4.699242,0.212853
4.702079,0.213944
4.704914,0.215036
4.707747,0.216094
4.710579,0.217162
4.713408,0.218204
4.716236,0.219232
4.719062,0.220246
4.721886,0.221242
4.724708,0.222218
4.727529,0.223172
4.730347,0.224105
4.733164,0.225016
4.735979,0.225906
4.738792,0.226774
4.741604,0.227619
4.744413,0.228439
4.747221,0.229230
4.750027,0.230004
4.752831,0.230748
4.755633,0.231472
4.758433,0.232181
4.761232,0.232879
4.764029,0.233573
4.766824,0.234266
4.769617,0.234965
4.772409,0.235673
4.775199,0.236396
4.777987,0.237137
4.780773,0.237902
4.783557,0.238694
4.786340,0.239519
4.789121,0.240383
4.791900,0.241290
4.794677,0.242251
4.797453,0.243260
4.800226,0.244311
4.802999,0.245399
4.805769,0.246514
4.808538,0.247652
4.811304,0.248808
4.814069,0.249975
4.816833,0.251149
4.819595,0.252325
4.822354,0.253496
4.825113,0.254654
4.827869,0.255793
4.830624,0.256906
4.833377,0.257990
4.836128,0.259039
4.838878,0.260053
4.841626,0.261029
4.844372,0.261966
4.847116,0.262866
4.849859,0.263733
4.852600,0.264573
4.855340,0.265391
4.858077,0.266193
4.860813,0.266988
4.863548,0.267779
4.866280,0.268570
4.869011,0.269364
4.871740,0.270168
4.874468,0.270981
4.877194,0.271801
4.879918,0.272635
4.882641,0.273490
4.885362,0.274373
4.888081,0.275272
4.890799,0.276190
4.893514,0.277129
4.896229,0.278086
4.898941,0.279056
4.901652,0.280037
4.904362,0.281028
4.907069,0.282024
4.909775,0.283016
4.912480,0.283996
4.915183,0.284955
4.917884,0.285885
4.920583,0.286781
4.923281,0.287647
4.925977,0.288483
4.928672,0.289308
4.931365,0.290110
4.934056,0.290902
4.936746,0.291690
4.939434,0.292480
4.942121,0.293276
4.944806,0.294082
4.947489,0.294900
4.950171,0.295738
4.952851,0.296606
4.955530,0.297509
4.958207,0.298443
4.960882,0.299411
4.963556,0.300411
4.966228,0.301510
4.968899,0.302646
4.971568,0.303858
4.974235,0.305122
4.976901,0.306455
4.979565,0.307846
4.982228,0.309280
4.984889,0.310749
4.987549,0.312247
4.990207,0.313753
4.992863,0.315248
4.995518,0.316736
4.998172,0.318233
5.000823,0.319740
5.003474,0.321239
5.006122,0.322704
5.008769,0.324175
5.011415,0.325598
5.014059,0.327029
5.016702,0.328414
5.019343,0.329772
5.021982,0.331114
5.024620,0.332451
5.027256,0.333783
5.029891,0.335104
5.032524,0.336410
5.035156,0.337717
5.037787,0.339050
5.040415,0.340414
5.043043,0.341802
5.045668,0.343219
5.048292,0.344686
