wave,flux
0.603108,0.119968
0.604550,0.122759
0.606002,0.124873
0.607464,0.126178
0.608936,0.126719
0.610418,0.126677
0.611910,0.126328
0.613412,0.126015
0.614925,0.126055
0.616448,0.126580
0.617982,0.127421
0.619527,0.128210
0.621083,0.128670
0.622649,0.128838
0.624227,0.129011
0.625816,0.129429
0.627416,0.130088
0.629027,0.130777
0.630651,0.131364
0.632285,0.131898
0.633932,0.132493
0.635591,0.133186
0.637261,0.133854
0.638944,0.134493
0.640639,0.135034
0.642347,0.135511
0.644067,0.135964
0.645800,0.136393
0.647546,0.136740
0.649305,0.136876
0.651077,0.136645
0.652862,0.136057
0.654660,0.135461
0.656473,0.135385
0.658299,0.136094
0.660138,0.137343
0.661992,0.138611
0.663860,0.139512
0.665742,0.139965
0.667639,0.140083
0.669551,0.140014
0.671477,0.139862
0.673418,0.139684
0.675375,0.139498
0.677346,0.139302
0.679334,0.139107
0.681337,0.138951
0.683355,0.138894
0.685390,0.138974
0.687441,0.139168
0.689508,0.139404
0.691592,0.139603
0.693692,0.139722
0.695809,0.139766
0.697944,0.139781
0.700096,0.139839
0.702265,0.139993
0.704452,0.140225
0.706657,0.140440
0.708879,0.140527
0.711120,0.140439
0.713380,0.140228
0.715658,0.140029
0.717956,0.139984
0.720272,0.140152
0.722607,0.140470
0.724963,0.140805
0.727337,0.141065
0.729732,0.141229
0.732147,0.141294
0.734583,0.141248
0.737039,0.141122
0.739516,0.141037
0.742014,0.141134
0.744533,0.141465
0.747074,0.141957
0.749637,0.142492
0.752221,0.142976
0.754828,0.143369
0.757458,0.143668
0.760110,0.143891
0.762786,0.144075
0.765484,0.144285
0.768206,0.144587
0.770952,0.145024
0.773722,0.145584
0.776516,0.146201
0.779335,0.146782
0.782178,0.147246
0.785047,0.147559
0.787941,0.147748
0.790860,0.147898
0.793805,0.148105
0.796777,0.148403
0.799775,0.148741
0.802799,0.149052
0.805850,0.149289
0.808929,0.149428
0.812035,0.149447
0.815168,0.149359
0.818330,0.149239
0.821520,0.149179
0.824739,0.149201
0.827986,0.149248
0.831262,0.149242
0.834568,0.149115
0.837903,0.148779
0.841269,0.148124
0.844664,0.147131
0.848090,0.145992
0.851547,0.145050
0.855034,0.144558
0.858553,0.144499
0.862103,0.144703
0.865686,0.145070
0.869300,0.145591
0.872946,0.146220
0.876625,0.146832
0.880337,0.147331
0.884082,0.147699
0.887860,0.147947
0.891672,0.148067
0.895517,0.148056
0.899396,0.147964
0.903310,0.147864
0.907258,0.147793
0.911241,0.147725
0.915259,0.147636
0.919311,0.147565
0.923399,0.147592
0.927523,0.147743
0.931682,0.147953
0.935877,0.148131
0.940109,0.148253
0.944376,0.148353
0.948680,0.148468
0.953020,0.148617
0.957397,0.148811
0.961810,0.149055
0.966261,0.149337
0.970749,0.149629
0.975273,0.149908
0.979835,0.150151
0.984435,0.150343
0.989071,0.150459
0.993745,0.150481
0.998457,0.150422
1.003206,0.150337
1.007992,0.150291
1.012817,0.150316
1.017678,0.150395
1.022578,0.150484
1.027514,0.150542
1.032488,0.150558
1.037500,0.150546
1.042549,0.150520
1.047635,0.150471
1.052758,0.150384
1.057919,0.150293
1.063116,0.150287
1.068350,0.150447
1.073620,0.150722
1.078927,0.150898
1.084271,0.150766
1.089650,0.150339
1.095065,0.149864
1.100516,0.149599
1.106001,0.149609
1.111522,0.149783
1.117078,0.149979
1.122668,0.150141
1.128293,0.150295
1.133951,0.150492
1.139643,0.150747
1.145368,0.151022
1.151125,0.151258
1.156915,0.151417
1.162737,0.151510
1.168591,0.151566
1.174476,0.151603
1.180391,0.151625
1.186337,0.151643
1.192313,0.151687
1.198318,0.151804
1.204351,0.152033
1.210414,0.152364
1.216504,0.152729
1.222621,0.153040
1.228766,0.153242
1.234936,0.153333
1.241132,0.153338
1.247354,0.153280
1.253600,0.153162
1.259871,0.152970
1.266165,0.152704
1.272482,0.152410
1.278821,0.152185
1.285182,0.152117
1.291565,0.152208
1.297968,0.152378
1.304391,0.152538
1.310834,0.152656
1.317295,0.152761
1.323775,0.152889
1.330272,0.153056
1.336787,0.153254
1.343318,0.153464
1.349865,0.153680
1.356428,0.153904
1.363005,0.154163
1.369596,0.154476
1.376201,0.154835
1.382819,0.155208
1.389449,0.155551
1.396091,0.155833
1.402744,0.156044
1.409409,0.156200
1.416083,0.156332
1.422766,0.156474
1.429459,0.156646
1.436160,0.156847
1.442870,0.157065
1.449586,0.157264
1.456310,0.157426
1.463040,0.157522
1.469776,0.157552
1.476517,0.157529
1.483263,0.157475
1.490014,0.157411
1.496768,0.157360
1.503526,0.157346
1.510287,0.157377
1.517050,0.157420
1.523816,0.157419
1.530583,0.157323
1.537351,0.157107
1.544120,0.156765
1.550890,0.156303
1.557660,0.155713
1.564429,0.155031
1.571197,0.154293
1.577965,0.153581
1.584730,0.152968
1.591494,0.152474
1.598256,0.152062
1.605015,0.151671
1.611771,0.151256
1.618524,0.150793
1.625274,0.150269
1.632019,0.149690
1.638761,0.149100
1.645498,0.148545
1.652230,0.148023
1.658957,0.147484
1.665679,0.146885
1.672396,0.146258
1.679106,0.145682
1.685811,0.145211
1.692509,0.144815
1.699201,0.144412
1.705886,0.143933
1.712564,0.143351
1.719235,0.142686
1.725899,0.141995
1.732555,0.141357
1.739204,0.140833
1.745844,0.140425
1.752476,0.140066
1.759100,0.139674
1.765716,0.139197
1.772323,0.138625
1.778921,0.137977
1.785511,0.137266
1.792091,0.136490
1.798662,0.135645
1.805224,0.134748
1.811776,0.133853
1.818319,0.133023
1.824852,0.132287
1.831376,0.131623
1.837889,0.130978
1.844393,0.130306
1.850886,0.129588
1.857369,0.128830
1.863842,0.128069
1.870305,0.127373
1.876757,0.126804
1.883198,0.126380
1.889629,0.126076
1.896049,0.125839
1.902459,0.125623
1.908858,0.125388
1.915245,0.125110
1.921622,0.124776
1.927988,0.124401
1.934343,0.124023
1.940687,0.123696
1.947020,0.123459
1.953341,0.123309
1.959652,0.123199
1.965951,0.123078
1.972239,0.122924
1.978516,0.122743
1.984781,0.122552
1.991035,0.122359
1.997277,0.122164
2.003509,0.121958
2.009728,0.121733
2.015937,0.121486
2.022134,0.121224
2.028319,0.120960
2.034493,0.120703
2.040656,0.120454
2.046807,0.120206
2.052946,0.119951
2.059074,0.119690
2.065191,0.119427
2.071296,0.119163
2.077389,0.118901
2.083471,0.118635
2.089542,0.118368
2.095601,0.118102
2.101649,0.117836
2.107685,0.117565
2.113710,0.117287
2.119723,0.117004
2.125725,0.116716
2.131715,0.116422
2.137694,0.116117
2.143661,0.115794
2.149618,0.115451
2.155562,0.115092
2.161496,0.114732
2.167418,0.114379
2.173329,0.114045
2.179228,0.113715
2.185117,0.113379
2.190994,0.113029
2.196859,0.112666
2.202714,0.112291
2.208557,0.111909
2.214390,0.111523
2.220211,0.111133
2.226021,0.110740
2.231820,0.110343
2.237608,0.109945
2.243384,0.109546
2.249150,0.109141
2.254905,0.108748
2.260649,0.108347
2.266382,0.107956
2.272104,0.107564
2.277816,0.107177
2.283516,0.106797
2.289206,0.106423
2.294885,0.106058
2.300553,0.105700
2.306210,0.105353
2.311857,0.105018
2.317493,0.104698
2.323119,0.104392
2.328734,0.104098
2.334339,0.103814
2.339933,0.103542
2.345516,0.103297
2.351089,0.103063
2.356652,0.102855
2.362204,0.102650
2.367746,0.102454
2.373278,0.102263
2.378799,0.102073
2.384310,0.101876
2.389811,0.101662
2.395302,0.101430
2.400783,0.101186
2.406254,0.100933
2.411714,0.100666
2.417165,0.100373
2.422605,0.100043
2.428036,0.099672
2.433456,0.099271
2.438867,0.098839
2.444268,0.098382
2.449659,0.097896
2.455041,0.097377
2.460412,0.096829
2.465774,0.096267
2.471126,0.095702
2.476469,0.095137
2.481802,0.094567
2.487126,0.093986
2.492440,0.093401
2.497744,0.092828
2.503039,0.092282
2.508325,0.091770
2.513601,0.091288
2.518868,0.090841
2.524125,0.090431
2.529373,0.090066
2.534612,0.089749
2.539842,0.089472
2.545063,0.089224
2.550274,0.088996
2.555476,0.088785
2.560670,0.088594
2.565854,0.088429
2.571029,0.088297
2.576195,0.088200
2.581353,0.088130
2.586501,0.088073
2.591641,0.088019
2.596771,0.087975
2.601893,0.087966
2.607007,0.088014
2.612111,0.088125
2.617207,0.088275
2.622294,0.088417
2.627372,0.088505
2.632442,0.088525
2.637503,0.088502
2.642556,0.088473
2.647600,0.088461
2.652636,0.088469
2.657663,0.088482
2.662682,0.088480
2.667693,0.088444
2.672695,0.088367
2.677689,0.088256
2.682675,0.088123
2.687652,0.087983
2.692621,0.087836
2.697582,0.087682
2.702535,0.087517
2.707480,0.087340
2.712417,0.087150
2.717346,0.086948
2.722266,0.086735
2.727179,0.086513
2.732084,0.086287
2.736980,0.086064
2.741869,0.085853
2.746750,0.085663
2.751623,0.085488
2.756489,0.085313
2.761346,0.085121
2.766196,0.084908
2.771038,0.084677
2.775873,0.084441
2.780700,0.084208
2.785519,0.083982
2.790330,0.083764
2.795134,0.083555
2.799931,0.083355
2.804720,0.083157
2.809501,0.082956
2.814275,0.082749
2.819042,0.082536
2.823801,0.082316
2.828553,0.082082
2.833297,0.081856
2.838034,0.081611
2.842764,0.081361
2.847487,0.081099
2.852202,0.080836
2.856911,0.080580
2.861612,0.080337
2.866305,0.080094
2.870992,0.079830
2.875672,0.079527
2.880344,0.079191
2.885010,0.078843
2.889669,0.078506
2.894320,0.078194
2.898965,0.077908
2.903602,0.077641
2.908233,0.077408
2.912857,0.077190
2.917474,0.077003
2.922084,0.076824
2.926688,0.076651
2.931284,0.076481
2.935874,0.076318
2.940457,0.076166
2.945033,0.076024
2.949603,0.075887
2.954166,0.075755
2.958723,0.075629
2.963272,0.075518
2.967816,0.075426
2.972352,0.075354
2.976882,0.075297
2.981406,0.075266
2.985923,0.075238
2.990434,0.075231
2.994938,0.075214
2.999436,0.075187
3.003927,0.075148
3.008412,0.075106
3.012891,0.075072
3.017363,0.075057
3.021829,0.075068
3.026289,0.075103
3.030743,0.075146
3.035190,0.075157
3.039631,0.075098
3.044066,0.074953
3.048495,0.074744
3.052917,0.074521
3.057334,0.074305
3.061744,0.074102
3.066149,0.073903
3.070547,0.073702
3.074939,0.073501
3.079325,0.073306
3.083705,0.073121
3.088080,0.072946
3.092448,0.072786
3.096810,0.072650
3.101167,0.072551
3.105517,0.072497
3.109862,0.072481
3.114201,0.072479
3.118534,0.072471
3.122861,0.072468
3.127182,0.072489
3.131498,0.072559
3.135808,0.072689
3.140112,0.072874
3.144410,0.073095
3.148703,0.073326
3.152990,0.073546
3.157272,0.073743
3.161548,0.073918
3.165818,0.074070
3.170082,0.074191
3.174342,0.074271
3.178595,0.074308
3.182843,0.074302
3.187086,0.074254
3.191323,0.074163
3.195554,0.074025
3.199780,0.073840
3.204001,0.073610
3.208216,0.073342
3.212426,0.073046
3.216630,0.072735
3.220829,0.072417
3.225023,0.072105
3.229211,0.071811
3.233394,0.071543
3.237572,0.071307
3.241744,0.071101
3.245912,0.070932
3.250074,0.070811
3.254230,0.070756
3.258382,0.070780
3.262528,0.070883
3.266669,0.071053
3.270805,0.071287
3.274936,0.071585
3.279062,0.071946
3.283183,0.072369
3.287298,0.072836
3.291409,0.073302
3.295514,0.073706
3.299615,0.074004
3.303710,0.074210
3.307800,0.074382
3.311886,0.074557
3.315966,0.074716
3.320042,0.074793
3.324112,0.074739
3.328178,0.074574
3.332238,0.074346
3.336294,0.074097
3.340345,0.073857
3.344391,0.073618
3.348432,0.073376
3.352469,0.073132
3.356500,0.072896
3.360527,0.072677
3.364549,0.072479
3.368566,0.072295
3.372579,0.072125
3.376586,0.071983
3.380589,0.071890
3.384588,0.071907
3.388581,0.072033
3.392570,0.072275
3.396554,0.072571
3.400534,0.072872
3.404509,0.073152
3.408479,0.073425
3.412445,0.073713
3.416406,0.074024
3.420362,0.074348
3.424314,0.074674
3.428262,0.074990
3.432204,0.075287
3.436143,0.075563
3.440077,0.075816
3.444006,0.076036
3.447931,0.076233
3.451851,0.076374
3.455767,0.076490
3.459679,0.076566
3.463586,0.076615
3.467488,0.076631
3.471386,0.076608
3.475280,0.076544
3.479170,0.076445
3.483055,0.076326
3.486936,0.076200
3.490812,0.076069
3.494684,0.075933
3.498552,0.075796
3.502415,0.075667
3.506275,0.075556
3.510130,0.075486
3.513980,0.075442
3.517827,0.075452
3.521669,0.075485
3.525507,0.075543
3.529341,0.075622
3.533170,0.075710
3.536996,0.075797
3.540817,0.075881
3.544634,0.075978
3.548447,0.076107
3.552255,0.076269
3.556060,0.076445
3.559861,0.076766
3.563657,0.076934
3.567449,0.077094
3.571238,0.077266
3.575022,0.077446
3.578802,0.077632
3.582578,0.077815
3.586350,0.077992
3.590118,0.078164
3.593882,0.078332
3.597642,0.078488
3.601398,0.078626
3.605151,0.078746
3.608899,0.078858
3.612643,0.078970
3.616383,0.079085
3.620120,0.079204
3.623852,0.079322
3.627580,0.079433
3.631305,0.079540
3.635026,0.079645
3.638743,0.079755
3.642456,0.079873
3.646165,0.079988
3.649870,0.080082
3.653572,0.080133
3.657269,0.080135
3.660963,0.080110
3.664653,0.080098
3.668340,0.080140
3.672022,0.080246
3.675701,0.080391
3.679376,0.080530
3.683047,0.080646
3.686715,0.080771
3.690378,0.080964
3.694038,0.081240
3.697695,0.081540
3.701347,0.081777
3.704996,0.081903
3.708642,0.081936
3.712283,0.081926
3.715921,0.081921
3.719556,0.081969
3.723186,0.082122
3.726814,0.082438
3.730437,0.082942
3.734057,0.083596
3.737673,0.084277
3.741286,0.084834
3.744895,0.085169
3.748501,0.085293
3.752103,0.085302
3.755701,0.085295
3.759296,0.085340
3.762887,0.085467
3.766475,0.085684
3.770060,0.085980
3.773640,0.086322
3.777218,0.086673
3.780792,0.087010
3.784362,0.087334
3.787929,0.087651
3.791493,0.087960
3.795053,0.088255
3.798609,0.088535
3.802162,0.088811
3.805712,0.089089
3.809259,0.089376
3.812801,0.089650
3.816341,0.089902
3.819877,0.090131
3.823410,0.090356
3.826939,0.090598
3.830466,0.090864
3.833988,0.091137
3.837508,0.091396
3.841024,0.091634
3.844537,0.091869
3.848046,0.092126
3.851552,0.092423
3.855055,0.092749
3.858554,0.093111
3.862051,0.093449
3.865544,0.093762
3.869033,0.094030
3.872520,0.094280
3.876003,0.094544
3.879483,0.094842
3.882960,0.095170
3.886433,0.095507
3.889904,0.095841
3.893371,0.096173
3.896835,0.096510
3.900295,0.096854
3.903753,0.097214
3.907207,0.097603
3.910659,0.098027
3.914107,0.098508
3.917551,0.099011
3.920993,0.099552
3.924432,0.100103
3.927867,0.100671
3.931300,0.101253
3.934729,0.101844
3.938155,0.102445
3.941578,0.103061
3.944998,0.103689
3.948415,0.104307
3.951829,0.104877
3.955239,0.105364
3.958647,0.105758
3.962052,0.106072
3.965453,0.106329
3.968852,0.106565
3.972247,0.106769
3.975640,0.106987
3.979029,0.107189
3.982416,0.107383
3.985799,0.107557
3.989180,0.107690
3.992557,0.107762
3.995932,0.107762
3.999303,0.107702
4.002672,0.107631
4.006037,0.107610
4.009400,0.107676
4.012760,0.107814
4.016116,0.107973
4.019470,0.108116
4.022821,0.108262
4.026169,0.108445
4.029514,0.108706
4.032856,0.109068
4.036196,0.109544
4.039532,0.110146
4.042866,0.110860
4.046196,0.111632
4.049524,0.112361
4.052849,0.112959
4.056171,0.113412
4.059490,0.113785
4.062807,0.114159
4.066120,0.114569
4.069431,0.115002
4.072739,0.115441
4.076044,0.115896
4.079346,0.116377
4.082646,0.116880
4.085942,0.117383
4.089236,0.117858
4.092527,0.118292
4.095815,0.118700
4.099101,0.119112
4.102384,0.119552
4.105664,0.120028
4.108941,0.120523
4.112216,0.121014
4.115487,0.121495
4.118756,0.121979
4.122023,0.122492
4.125286,0.123049
4.128547,0.123654
4.131805,0.124301
4.135061,0.124977
4.138314,0.125682
4.141564,0.126413
4.144811,0.127160
4.148056,0.127903
4.151298,0.128629
4.154537,0.129340
4.157774,0.130055
4.161008,0.130793
4.164239,0.131565
4.167468,0.132363
4.170694,0.133169
4.173918,0.133960
4.177139,0.134727
4.180357,0.135469
4.183573,0.136205
4.186786,0.136939
4.189996,0.137686
4.193204,0.138455
4.196409,0.139245
4.199612,0.140040
4.202812,0.140805
4.206009,0.141512
4.209204,0.142160
4.212397,0.142778
4.215587,0.143406
4.218774,0.144068
4.221959,0.144768
4.225141,0.145503
4.228320,0.146272
4.231497,0.147071
4.234672,0.147907
4.237844,0.148760
4.241014,0.149616
4.244181,0.150453
4.247345,0.151258
4.250507,0.152030
4.253667,0.152780
4.256824,0.153512
4.259979,0.154224
4.263131,0.154904
4.266280,0.155546
4.269427,0.156144
4.272572,0.156701
4.275714,0.157206
4.278854,0.157695
4.281992,0.158151
4.285127,0.158636
4.288259,0.159158
4.291389,0.159709
4.294517,0.160220
4.297642,0.160608
4.300765,0.160838
4.303885,0.160944
4.307003,0.160998
4.310119,0.161060
4.313232,0.161162
4.316343,0.161314
4.319451,0.161517
4.322557,0.161774
4.325661,0.162084
4.328762,0.162471
4.331861,0.162913
4.334958,0.163443
4.338052,0.164040
4.341144,0.164716
4.344233,0.165465
4.347321,0.166264
4.350405,0.167076
4.353488,0.167874
4.356568,0.168653
4.359646,0.169427
4.362722,0.170209
4.365795,0.171004
4.368866,0.171809
4.371934,0.172619
4.375001,0.173424
4.378065,0.174231
4.381126,0.175023
4.384186,0.175801
4.387243,0.176567
4.390298,0.177315
4.393351,0.178042
4.396401,0.178737
4.399449,0.179390
4.402495,0.179994
4.405539,0.180559
4.408580,0.181114
4.411619,0.181696
4.414656,0.182323
4.417691,0.182994
4.420723,0.183692
4.423753,0.184396
4.426781,0.185101
4.429807,0.185793
4.432831,0.186472
4.435852,0.187142
4.438871,0.187806
4.441888,0.188463
4.444903,0.189115
4.447915,0.189759
4.450926,0.190392
4.453934,0.190998
4.456940,0.191546
4.459944,0.192010
4.462945,0.192394
4.465945,0.192756
4.468942,0.193181
4.471937,0.193724
4.474930,0.194394
4.477921,0.195149
4.480910,0.195940
4.483897,0.196718
4.486881,0.197458
4.489863,0.198166
4.492844,0.198876
4.495822,0.199617
4.498798,0.200384
4.501772,0.201151
4.504743,0.201906
4.507713,0.202665
4.510680,0.203449
4.513646,0.204240
4.516609,0.204985
4.519570,0.205642
4.522530,0.206249
4.525487,0.206927
4.528442,0.207805
4.531395,0.208935
4.534345,0.210255
4.537294,0.211643
4.540241,0.212999
4.543186,0.214292
4.546128,0.215562
4.549069,0.216865
4.552007,0.218221
4.554944,0.219588
4.557878,0.220889
4.560810,0.222071
4.563741,0.223143
4.566669,0.224163
4.569595,0.225167
4.572520,0.226141
4.575442,0.227004
4.578362,0.227691
4.581280,0.228213
4.584197,0.228674
4.587111,0.229215
4.590023,0.229935
4.592933,0.230843
4.595842,0.231874
4.598748,0.232948
4.601652,0.234005
4.604554,0.235014
4.607455,0.235974
4.610353,0.236891
4.613249,0.237784
4.616144,0.238674
4.619036,0.239602
4.621927,0.240585
4.624815,0.241628
4.627702,0.242689
4.630586,0.243695
4.633469,0.244577
4.636350,0.245304
4.639229,0.245878
4.642105,0.246320
4.644980,0.246676
4.647853,0.247054
4.650724,0.247600
4.653594,0.248418
4.656461,0.249496
4.659326,0.250750
4.662190,0.252026
4.665051,0.253265
4.667911,0.254426
4.670768,0.255512
4.673624,0.256530
4.676478,0.257511
4.679330,0.258511
4.682180,0.259577
4.685029,0.260693
4.687875,0.261791
4.690720,0.262809
4.693562,0.263747
4.696403,0.264658
4.699242,0.265594
4.702079,0.266546
4.704914,0.267464
4.707747,0.268270
4.710579,0.269031
4.713408,0.269871
4.716236,0.270964
4.719062,0.272360
4.721886,0.273933
4.724708,0.275458
4.727529,0.276764
4.730347,0.277845
4.733164,0.278834
4.735979,0.279890
4.738792,0.281098
4.741604,0.282429
4.744413,0.283796
4.747221,0.285122
4.750027,0.286406
4.752831,0.287686
4.755633,0.288993
4.758433,0.290285
4.761232,0.291501
4.764029,0.292627
4.766824,0.293702
4.769617,0.294752
4.772409,0.295768
4.775199,0.296759
4.777987,0.297774
4.780773,0.298870
4.783557,0.300054
4.786340,0.301267
4.789121,0.302413
4.791900,0.303434
4.794677,0.304353
4.797453,0.305220
4.800226,0.306100
4.802999,0.307067
4.805769,0.308166
4.808538,0.309376
4.811304,0.310648
4.814069,0.311957
4.816833,0.313266
4.819595,0.314536
4.822354,0.315796
4.825113,0.317136
4.827869,0.318604
4.830624,0.320165
4.833377,0.321761
4.836128,0.323330
4.838878,0.324815
4.841626,0.326230
4.844372,0.327695
4.847116,0.329329
4.849859,0.331132
4.852600,0.333042
4.855340,0.335018
4.858077,0.336989
4.860813,0.338866
4.863548,0.340630
4.866280,0.342320
4.869011,0.343923
4.871740,0.345427
4.874468,0.346939
4.877194,0.348582
4.879918,0.350309
4.882641,0.351988
4.885362,0.353593
4.888081,0.355143
4.890799,0.356553
4.893514,0.357703
4.896229,0.358591
4.898941,0.359274
4.901652,0.359730
4.904362,0.359916
4.907069,0.359893
4.909775,0.359790
4.912480,0.359721
4.915183,0.359811
4.917884,0.360190
4.920583,0.360857
4.923281,0.361656
4.925977,0.362443
4.928672,0.363209
4.931365,0.363975
4.934056,0.364738
4.936746,0.365496
4.939434,0.366268
4.942121,0.367072
4.944806,0.367967
4.947489,0.369024
4.950171,0.370222
4.952851,0.371466
4.955530,0.372796
4.958207,0.374395
4.960882,0.376319
4.963556,0.378380
4.966228,0.380461
4.968899,0.382616
4.971568,0.384919
4.974235,0.387166
4.976901,0.389133
4.979565,0.390871
4.982228,0.392559
4.984889,0.394225
4.987549,0.395870
4.990207,0.397718
4.992863,0.399987
4.995518,0.402504
4.998172,0.404866
5.000823,0.406949
5.003474,0.408953
5.006122,0.410982
5.008769,0.412920
5.011415,0.414658
5.014059,0.416326
5.016702,0.418086
5.019343,0.419965
5.021982,0.421855
5.024620,0.423658
5.027256,0.425429
5.029891,0.427360
5.032524,0.429555
5.035156,0.431837
5.037787,0.433917
5.040415,0.435752
5.043043,0.437540
5.045668,0.439271
5.048292,0.440578
