wave,flux
0.603108,0.075474
0.604550,0.075456
0.606002,0.075425
0.607464,0.075322
0.608936,0.075137
0.610418,0.074903
0.611910,0.074686
0.613412,0.074581
0.614925,0.074678
0.616448,0.075014
0.617982,0.075523
0.619527,0.076069
0.621083,0.076538
0.622649,0.076920
0.624227,0.077297
0.625816,0.077747
0.627416,0.078249
0.629027,0.078733
0.630651,0.079150
0.632285,0.079517
0.633932,0.079882
0.635591,0.080261
0.637261,0.080734
0.638944,0.081062
0.640639,0.081334
0.642347,0.081567
0.644067,0.081779
0.645800,0.081972
0.647546,0.082128
0.649305,0.082190
0.651077,0.082094
0.652862,0.081844
0.654660,0.081591
0.656473,0.081574
0.658299,0.081918
0.660138,0.082521
0.661992,0.083148
0.663860,0.083618
0.665742,0.083886
0.667639,0.084000
0.669551,0.084024
0.671477,0.084004
0.673418,0.083966
0.675375,0.083915
0.677346,0.083849
0.679334,0.083770
0.681337,0.083695
0.683355,0.083653
0.685390,0.083664
0.687441,0.083719
0.689508,0.083783
0.691592,0.083819
0.693692,0.083805
0.695809,0.083745
0.697944,0.083666
0.700096,0.083608
0.702265,0.083602
0.704452,0.083642
0.706657,0.083680
0.708879,0.083658
0.711120,0.083550
0.713380,0.083387
0.715658,0.083246
0.717956,0.083210
0.720272,0.083314
0.722607,0.083520
0.724963,0.083752
0.727337,0.083954
0.729732,0.084109
0.732147,0.084212
0.734583,0.084253
0.737039,0.084245
0.739516,0.084256
0.742014,0.084367
0.744533,0.084607
0.747074,0.084931
0.749637,0.085266
0.752221,0.085552
0.754828,0.085761
0.757458,0.085887
0.760110,0.085941
0.762786,0.085950
0.765484,0.085955
0.768206,0.086002
0.770952,0.086121
0.773722,0.086309
0.776516,0.086530
0.779335,0.086727
0.782178,0.086854
0.785047,0.086891
0.787941,0.086858
0.790860,0.086812
0.793805,0.086818
0.796777,0.086903
0.799775,0.087038
0.802799,0.087183
0.805850,0.087306
0.808929,0.087389
0.812035,0.087418
0.815168,0.087397
0.818330,0.087375
0.821520,0.087410
0.824739,0.087516
0.827986,0.087654
0.831262,0.087771
0.834568,0.087819
0.837903,0.087736
0.841269,0.087446
0.844664,0.086933
0.848090,0.086323
0.851547,0.085847
0.855034,0.085678
0.858553,0.085802
0.862103,0.086107
0.865686,0.086521
0.869300,0.087039
0.872946,0.087625
0.876625,0.088195
0.880337,0.088678
0.884082,0.089060
0.887860,0.089346
0.891672,0.089528
0.895517,0.089602
0.899396,0.089599
0.903310,0.089570
0.907258,0.089539
0.911241,0.089484
0.915259,0.089389
0.919311,0.089282
0.923399,0.089226
0.927523,0.089242
0.931682,0.089286
0.935877,0.089299
0.940109,0.089265
0.944376,0.089213
0.948680,0.089171
0.953020,0.089156
0.957397,0.089181
0.961810,0.089251
0.966261,0.089362
0.970749,0.089497
0.975273,0.089642
0.979835,0.089785
0.984435,0.089916
0.989071,0.090014
0.993745,0.090065
0.998457,0.090076
1.003206,0.090084
1.007992,0.090134
1.012817,0.090249
1.017678,0.090412
1.022578,0.090591
1.027514,0.090753
1.032488,0.090888
1.037500,0.091005
1.042549,0.091110
1.047635,0.091195
1.052758,0.091246
1.057919,0.091280
1.063116,0.091357
1.068350,0.091533
1.073620,0.091775
1.078927,0.091945
1.084271,0.091905
1.089650,0.091668
1.095065,0.091403
1.100516,0.091280
1.106001,0.091336
1.111522,0.091488
1.117078,0.091635
1.122668,0.091741
1.128293,0.091826
1.133951,0.091929
1.139643,0.092061
1.145368,0.092193
1.151125,0.092284
1.156915,0.092308
1.162737,0.092277
1.168591,0.092213
1.174476,0.092133
1.180391,0.092043
1.186337,0.091954
1.192313,0.091891
1.198318,0.091890
1.204351,0.091983
1.210414,0.092165
1.216504,0.092388
1.222621,0.092593
1.228766,0.092740
1.234936,0.092830
1.241132,0.092885
1.247354,0.092920
1.253600,0.092933
1.259871,0.092910
1.266165,0.092846
1.272482,0.092772
1.278821,0.092754
1.285182,0.092852
1.291565,0.093063
1.297968,0.093324
1.304391,0.093566
1.310834,0.093763
1.317295,0.093930
1.323775,0.094091
1.330272,0.094252
1.336787,0.094404
1.343318,0.094530
1.349865,0.094627
1.356428,0.094701
1.363005,0.094778
1.369596,0.094874
1.376201,0.094990
1.382819,0.095107
1.389449,0.095197
1.396091,0.095244
1.402744,0.095245
1.409409,0.095217
1.416083,0.095187
1.422766,0.095183
1.429459,0.095224
1.436160,0.095315
1.442870,0.095450
1.449586,0.095608
1.456310,0.095773
1.463040,0.095923
1.469776,0.096051
1.476517,0.096164
1.483263,0.096273
1.490014,0.096387
1.496768,0.096520
1.503526,0.096683
1.510287,0.096877
1.517050,0.097076
1.523816,0.097235
1.530583,0.097316
1.537351,0.097298
1.544120,0.097173
1.550890,0.096940
1.557660,0.096594
1.564429,0.096159
1.571197,0.095665
1.577965,0.095169
1.584730,0.094723
1.591494,0.094344
1.598256,0.094009
1.605015,0.093678
1.611771,0.093325
1.618524,0.092938
1.625274,0.092509
1.632019,0.092048
1.638761,0.091585
1.645498,0.091155
1.652230,0.090760
1.658957,0.090368
1.665679,0.089955
1.672396,0.089540
1.679106,0.089174
1.685811,0.088889
1.692509,0.088663
1.699201,0.088443
1.705886,0.088182
1.712564,0.087862
1.719235,0.087497
1.725899,0.087119
1.732555,0.086777
1.739204,0.086507
1.745844,0.086305
1.752476,0.086129
1.759100,0.085926
1.765716,0.085662
1.772323,0.085331
1.778921,0.084945
1.785511,0.084514
1.792091,0.084036
1.798662,0.083512
1.805224,0.082952
1.811776,0.082389
1.818319,0.081859
1.824852,0.081382
1.831376,0.080942
1.837889,0.080510
1.844393,0.080062
1.850886,0.079587
1.857369,0.079091
1.863842,0.078596
1.870305,0.078141
1.876757,0.077760
1.883198,0.077462
1.889629,0.077231
1.896049,0.077040
1.902459,0.076863
1.908858,0.076681
1.915245,0.076481
1.921622,0.076258
1.927988,0.076020
1.934343,0.075789
1.940687,0.075590
1.947020,0.075444
1.953341,0.075346
1.959652,0.075273
1.965951,0.075200
1.972239,0.075118
1.978516,0.075029
1.984781,0.074939
1.991035,0.074851
1.997277,0.074762
2.003509,0.074669
2.009728,0.074566
2.015937,0.074451
2.022134,0.074326
2.028319,0.074195
2.034493,0.074059
2.040656,0.073918
2.046807,0.073767
2.052946,0.073603
2.059074,0.073423
2.065191,0.073228
2.071296,0.073018
2.077389,0.072794
2.083471,0.072555
2.089542,0.072305
2.095601,0.072046
2.101649,0.071779
2.107685,0.071506
2.113710,0.071227
2.119723,0.070944
2.125725,0.070661
2.131715,0.070377
2.137694,0.070096
2.143661,0.069817
2.149618,0.069545
2.155562,0.069282
2.161496,0.069030
2.167418,0.068790
2.173329,0.068563
2.179228,0.068341
2.185117,0.068126
2.190994,0.067918
2.196859,0.067718
2.202714,0.067525
2.208557,0.067339
2.214390,0.067158
2.220211,0.066980
2.226021,0.066806
2.231820,0.066635
2.237608,0.066468
2.243384,0.066302
2.249150,0.066132
2.254905,0.065968
2.260649,0.065797
2.266382,0.065628
2.272104,0.065456
2.277816,0.065285
2.283516,0.065114
2.289206,0.064942
2.294885,0.064767
2.300553,0.064588
2.306210,0.064409
2.311857,0.064231
2.317493,0.064056
2.323119,0.063879
2.328734,0.063695
2.334339,0.063504
2.339933,0.063308
2.345516,0.063118
2.351089,0.062923
2.356652,0.062735
2.362204,0.062539
2.367746,0.062340
2.373278,0.062142
2.378799,0.061942
2.384310,0.061734
2.389811,0.061514
2.395302,0.061284
2.400783,0.061053
2.406254,0.060827
2.411714,0.060604
2.417165,0.060377
2.422605,0.060137
2.428036,0.059885
2.433456,0.059633
2.438867,0.059383
2.444268,0.059134
2.449659,0.058880
2.455041,0.058615
2.460412,0.058339
2.465774,0.058061
2.471126,0.057785
2.476469,0.057512
2.481802,0.057234
2.487126,0.056943
2.492440,0.056643
2.497744,0.056342
2.503039,0.056048
2.508325,0.055763
2.513601,0.055481
2.518868,0.055202
2.524125,0.054928
2.529373,0.054665
2.534612,0.054417
2.539842,0.054182
2.545063,0.053954
2.550274,0.053729
2.555476,0.053510
2.560670,0.053298
2.565854,0.053102
2.571029,0.052926
2.576195,0.052775
2.581353,0.052646
2.586501,0.052531
2.591641,0.052429
2.596771,0.052345
2.601893,0.052297
2.607007,0.052295
2.612111,0.052341
2.617207,0.052420
2.622294,0.052505
2.627372,0.052569
2.632442,0.052604
2.637503,0.052623
2.642556,0.052644
2.647600,0.052678
2.652636,0.052724
2.657663,0.052772
2.662682,0.052810
2.667693,0.052827
2.672695,0.052819
2.677689,0.052787
2.682675,0.052736
2.687652,0.052672
2.692621,0.052596
2.697582,0.052507
2.702535,0.052405
2.707480,0.052289
2.712417,0.052161
2.717346,0.052020
2.722266,0.051868
2.727179,0.051707
2.732084,0.051539
2.736980,0.051369
2.741869,0.051200
2.746750,0.051036
2.751623,0.050876
2.756489,0.050715
2.761346,0.050545
2.766196,0.050369
2.771038,0.050186
2.775873,0.050005
2.780700,0.049829
2.785519,0.049661
2.790330,0.049500
2.795134,0.049350
2.799931,0.049210
2.804720,0.049079
2.809501,0.048956
2.814275,0.048841
2.819042,0.048735
2.823801,0.048637
2.828553,0.048546
2.833297,0.048474
2.838034,0.048407
2.842764,0.048351
2.847487,0.048302
2.852202,0.048259
2.856911,0.048224
2.861612,0.048196
2.866305,0.048169
2.870992,0.048134
2.875672,0.048086
2.880344,0.048023
2.885010,0.047951
2.889669,0.047873
2.894320,0.047790
2.898965,0.047701
2.903602,0.047601
2.908233,0.047494
2.912857,0.047370
2.917474,0.047239
2.922084,0.047094
2.926688,0.046940
2.931284,0.046777
2.935874,0.046611
2.940457,0.046444
2.945033,0.046279
2.949603,0.046119
2.954166,0.045964
2.958723,0.045819
2.963272,0.045688
2.967816,0.045574
2.972352,0.045480
2.976882,0.045407
2.981406,0.045362
2.985923,0.045337
2.990434,0.045341
2.994938,0.045360
2.999436,0.045393
3.003927,0.045438
3.008412,0.045495
3.012891,0.045561
3.017363,0.045635
3.021829,0.045715
3.026289,0.045799
3.030743,0.045880
3.035190,0.045952
3.039631,0.046009
3.044066,0.046046
3.048495,0.046065
3.052917,0.046069
3.057334,0.046056
3.061744,0.046030
3.066149,0.045989
3.070547,0.045937
3.074939,0.045873
3.079325,0.045802
3.083705,0.045724
3.088080,0.045642
3.092448,0.045557
3.096810,0.045472
3.101167,0.045388
3.105517,0.045309
3.109862,0.045236
3.114201,0.045169
3.118534,0.045111
3.122861,0.045066
3.127182,0.045033
3.131498,0.045012
3.135808,0.045001
3.140112,0.044999
3.144410,0.045002
3.148703,0.045011
3.152990,0.045023
3.157272,0.045038
3.161548,0.045053
3.165818,0.045069
3.170082,0.045082
3.174342,0.045092
3.178595,0.045098
3.182843,0.045096
3.187086,0.045086
3.191323,0.045065
3.195554,0.045034
3.199780,0.044994
3.204001,0.044947
3.208216,0.044897
3.212426,0.044843
3.216630,0.044789
3.220829,0.044734
3.225023,0.044681
3.229211,0.044631
3.233394,0.044586
3.237572,0.044546
3.241744,0.044517
3.245912,0.044498
3.250074,0.044493
3.254230,0.044501
3.258382,0.044523
3.262528,0.044558
3.266669,0.044604
3.270805,0.044657
3.274936,0.044714
3.279062,0.044768
3.283183,0.044817
3.287298,0.044858
3.291409,0.044895
3.295514,0.044937
3.299615,0.044990
3.303710,0.045045
3.307800,0.045089
3.311886,0.045108
3.315966,0.045102
3.320042,0.045079
3.324112,0.045048
3.328178,0.045010
3.332238,0.044957
3.336294,0.044885
3.340345,0.044797
3.344391,0.044698
3.348432,0.044595
3.352469,0.044495
3.356500,0.044402
3.360527,0.044321
3.364549,0.044256
3.368566,0.044217
3.372579,0.044211
3.376586,0.044242
3.380589,0.044305
3.384588,0.044403
3.388581,0.044525
3.392570,0.044673
3.396554,0.044854
3.400534,0.045078
3.404509,0.045345
3.408479,0.045644
3.412445,0.045959
3.416406,0.046278
3.420362,0.046595
3.424314,0.046908
3.428262,0.047211
3.432204,0.047498
3.436143,0.047762
3.440077,0.047995
3.444006,0.048188
3.447931,0.048338
3.451851,0.048439
3.455767,0.048494
3.459679,0.048506
3.463586,0.048480
3.467488,0.048424
3.471386,0.048348
3.475280,0.048260
3.479170,0.048164
3.483055,0.048060
3.486936,0.047949
3.490812,0.047836
3.494684,0.047730
3.498552,0.047634
3.502415,0.047552
3.506275,0.047483
3.510130,0.047429
3.513980,0.047392
3.517827,0.047374
3.521669,0.047373
3.525507,0.047391
3.529341,0.047430
3.533170,0.047494
3.536996,0.047588
3.540817,0.047709
3.544634,0.047850
3.548447,0.047997
3.552255,0.048149
3.556060,0.048314
3.559861,0.048408
3.563657,0.048614
3.567449,0.048840
3.571238,0.049076
3.575022,0.049319
3.578802,0.049569
3.582578,0.049827
3.586350,0.050092
3.590118,0.050360
3.593882,0.050628
3.597642,0.050897
3.601398,0.051169
3.605151,0.051438
3.608899,0.051699
3.612643,0.051940
3.616383,0.052157
3.620120,0.052346
3.623852,0.052506
3.627580,0.052637
3.631305,0.052736
3.635026,0.052801
3.638743,0.052830
3.642456,0.052829
3.646165,0.052807
3.649870,0.052786
3.653572,0.052784
3.657269,0.052812
3.660963,0.052862
3.664653,0.052909
3.668340,0.052931
3.672022,0.052922
3.675701,0.052908
3.679376,0.052926
3.683047,0.052995
3.686715,0.053096
3.690378,0.053192
3.694038,0.053269
3.697695,0.053368
3.701347,0.053554
3.704996,0.053859
3.708642,0.054269
3.712283,0.054741
3.715921,0.055233
3.719556,0.055704
3.723186,0.056105
3.726814,0.056385
3.730437,0.056514
3.734057,0.056519
3.737673,0.056494
3.741286,0.056563
3.744895,0.056805
3.748501,0.057211
3.752103,0.057704
3.755701,0.058199
3.759296,0.058640
3.762887,0.059000
3.766475,0.059272
3.770060,0.059467
3.773640,0.059613
3.777218,0.059744
3.780792,0.059882
3.784362,0.060027
3.787929,0.060174
3.791493,0.060327
3.795053,0.060493
3.798609,0.060673
3.802162,0.060858
3.805712,0.061041
3.809259,0.061223
3.812801,0.061415
3.816341,0.061628
3.819877,0.061861
3.823410,0.062096
3.826939,0.062309
3.830466,0.062494
3.833988,0.062665
3.837508,0.062842
3.841024,0.063030
3.844537,0.063211
3.848046,0.063357
3.851552,0.063451
3.855055,0.063490
3.858554,0.063494
3.862051,0.063492
3.865544,0.063514
3.869033,0.063574
3.872520,0.063655
3.876003,0.063730
3.879483,0.063784
3.882960,0.063829
3.886433,0.063893
3.889904,0.063996
3.893371,0.064144
3.896835,0.064336
3.900295,0.064577
3.903753,0.064864
3.907207,0.065190
3.910659,0.065545
3.914107,0.065935
3.917551,0.066373
3.920993,0.066860
3.924432,0.067390
3.927867,0.067952
3.931300,0.068534
3.934729,0.069129
3.938155,0.069722
3.941578,0.070293
3.944998,0.070831
3.948415,0.071349
3.951829,0.071879
3.955239,0.072450
3.958647,0.073062
3.962052,0.073687
3.965453,0.074277
3.968852,0.074789
3.972247,0.075200
3.975640,0.075508
3.979029,0.075724
3.982416,0.075863
3.985799,0.075956
3.989180,0.076044
3.992557,0.076169
3.995932,0.076363
3.999303,0.076622
4.002672,0.076901
4.006037,0.077131
4.009400,0.077274
4.012760,0.077366
4.016116,0.077489
4.019470,0.077709
4.022821,0.078026
4.026169,0.078390
4.029514,0.078738
4.032856,0.079030
4.036196,0.079233
4.039532,0.079323
4.042866,0.079304
4.046196,0.079248
4.049524,0.079292
4.052849,0.079560
4.056171,0.080071
4.059490,0.080720
4.062807,0.081378
4.066120,0.081982
4.069431,0.082541
4.072739,0.083068
4.076044,0.083544
4.079346,0.083946
4.082646,0.084281
4.085942,0.084591
4.089236,0.084929
4.092527,0.085321
4.095815,0.085751
4.099101,0.086176
4.102384,0.086559
4.105664,0.086895
4.108941,0.087218
4.112216,0.087570
4.115487,0.087974
4.118756,0.088410
4.122023,0.088843
4.125286,0.089248
4.128547,0.089625
4.131805,0.089991
4.135061,0.090356
4.138314,0.090722
4.141564,0.091087
4.144811,0.091469
4.148056,0.091900
4.151298,0.092404
4.154537,0.092974
4.157774,0.093572
4.161008,0.094152
4.164239,0.094690
4.167468,0.095193
4.170694,0.095696
4.173918,0.096237
4.177139,0.096835
4.180357,0.097484
4.183573,0.098158
4.186786,0.098828
4.189996,0.099469
4.193204,0.100058
4.196409,0.100593
4.199612,0.101111
4.202812,0.101692
4.206009,0.102408
4.209204,0.103267
4.212397,0.104201
4.215587,0.105119
4.218774,0.105960
4.221959,0.106710
4.225141,0.107372
4.228320,0.107953
4.231497,0.108446
4.234672,0.108853
4.237844,0.109189
4.241014,0.109490
4.244181,0.109809
4.247345,0.110179
4.250507,0.110592
4.253667,0.111014
4.256824,0.111413
4.259979,0.111791
4.263131,0.112165
4.266280,0.112551
4.269427,0.112948
4.272572,0.113344
4.275714,0.113717
4.278854,0.114029
4.281992,0.114194
4.285127,0.114087
4.288259,0.113598
4.291389,0.112792
4.294517,0.111965
4.297642,0.111518
4.300765,0.111689
4.303885,0.112418
4.307003,0.113453
4.310119,0.114552
4.313232,0.115593
4.316343,0.116558
4.319451,0.117470
4.322557,0.118354
4.325661,0.119225
4.328762,0.120093
4.331861,0.120947
4.334958,0.121758
4.338052,0.122419
4.341144,0.122798
4.344233,0.122814
4.347321,0.122559
4.350405,0.122315
4.353488,0.122402
4.356568,0.122964
4.359646,0.123907
4.362722,0.125029
4.365795,0.126176
4.368866,0.127290
4.371934,0.128365
4.375001,0.129396
4.378065,0.130373
4.381126,0.131282
4.384186,0.132117
4.387243,0.132866
4.390298,0.133505
4.393351,0.133986
4.396401,0.134244
4.399449,0.134228
4.402495,0.133969
4.405539,0.133628
4.408580,0.133458
4.411619,0.133665
4.414656,0.134289
4.417691,0.135213
4.420723,0.136277
4.423753,0.137361
4.426781,0.138399
4.429807,0.139367
4.432831,0.140271
4.435852,0.141134
4.438871,0.141973
4.441888,0.142793
4.444903,0.143591
4.447915,0.144368
4.450926,0.145110
4.453934,0.145774
4.456940,0.146283
4.459944,0.146579
4.462945,0.146703
4.465945,0.146815
4.468942,0.147108
4.471937,0.147684
4.474930,0.148515
4.477921,0.149488
4.480910,0.150477
4.483897,0.151384
4.486881,0.152163
4.489863,0.152836
4.492844,0.153466
4.495822,0.154100
4.498798,0.154729
4.501772,0.155310
4.504743,0.155826
4.507713,0.156305
4.510680,0.156778
4.513646,0.157222
4.516609,0.157569
4.519570,0.157779
4.522530,0.157909
4.525487,0.158114
4.528442,0.158538
4.531395,0.159224
4.534345,0.160088
4.537294,0.160997
4.540241,0.161851
4.543186,0.162634
4.546128,0.163393
4.549069,0.164184
4.552007,0.165028
4.554944,0.165890
4.557878,0.166709
4.560810,0.167451
4.563741,0.168137
4.566669,0.168816
4.569595,0.169520
4.572520,0.170239
4.575442,0.170912
4.578362,0.171504
4.581280,0.172028
4.584197,0.172550
4.587111,0.173154
4.590023,0.173887
4.592933,0.174739
4.595842,0.175664
4.598748,0.176612
4.601652,0.177547
4.604554,0.178458
4.607455,0.179340
4.610353,0.180201
4.613249,0.181047
4.616144,0.181885
4.619036,0.182738
4.621927,0.183602
4.624815,0.184478
4.627702,0.185349
4.630586,0.186188
4.633469,0.186975
4.636350,0.187703
4.639229,0.188380
4.642105,0.189014
4.644980,0.189624
4.647853,0.190238
4.650724,0.190892
4.653594,0.191603
4.656461,0.192354
4.659326,0.193129
4.662190,0.193872
4.665051,0.194599
4.667911,0.195286
4.670768,0.195947
4.673624,0.196591
4.676478,0.197226
4.679330,0.197868
4.682180,0.198525
4.685029,0.199198
4.687875,0.199881
4.690720,0.200572
4.693562,0.201278
4.696403,0.202010
4.699242,0.202776
4.702079,0.203575
4.704914,0.204421
4.707747,0.205286
4.710579,0.206217
4.713408,0.207176
4.716236,0.208177
4.719062,0.209211
4.721886,0.210265
4.724708,0.211329
4.727529,0.212399
4.730347,0.213476
4.733164,0.214559
4.735979,0.215644
4.738792,0.216723
4.741604,0.217790
4.744413,0.218840
4.747221,0.219870
4.750027,0.220887
4.752831,0.221877
4.755633,0.222842
4.758433,0.223787
4.761232,0.224719
4.764029,0.225642
4.766824,0.226555
4.769617,0.227460
4.772409,0.228358
4.775199,0.229250
4.777987,0.230134
4.780773,0.231002
4.783557,0.231854
4.786340,0.232697
4.789121,0.233545
4.791900,0.234404
4.794677,0.235282
4.797453,0.236167
4.800226,0.237052
4.802999,0.237927
4.805769,0.238785
4.808538,0.239628
4.811304,0.240465
4.814069,0.241302
4.816833,0.242147
4.819595,0.243010
4.822354,0.243888
4.825113,0.244767
4.827869,0.245638
4.830624,0.246511
4.833377,0.247399
4.836128,0.248317
4.838878,0.249285
4.841626,0.250301
4.844372,0.251333
4.847116,0.252353
4.849859,0.253357
4.852600,0.254352
4.855340,0.255345
4.858077,0.256349
4.860813,0.257382
4.863548,0.258445
4.866280,0.259526
4.869011,0.260624
4.871740,0.261739
4.874468,0.262836
4.877194,0.263878
4.879918,0.264869
4.882641,0.265838
4.885362,0.266798
4.888081,0.267733
4.890799,0.268669
4.893514,0.269641
4.896229,0.270651
4.898941,0.271685
4.901652,0.272748
4.904362,0.273857
4.907069,0.274995
4.909775,0.276121
4.912480,0.277200
4.915183,0.278192
4.917884,0.279054
4.920583,0.279782
4.923281,0.280426
4.925977,0.281027
4.928672,0.281616
4.931365,0.282176
4.934056,0.282727
4.936746,0.283279
4.939434,0.283838
4.942121,0.284407
4.944806,0.284978
4.947489,0.285535
4.950171,0.286096
4.952851,0.286704
4.955530,0.287356
4.958207,0.287996
4.960882,0.288612
4.963556,0.289259
4.966228,0.290062
4.968899,0.290926
4.971568,0.291884
4.974235,0.292963
4.976901,0.294255
4.979565,0.295736
4.982228,0.297327
4.984889,0.299011
4.987549,0.300777
4.990207,0.302528
4.992863,0.304166
4.995518,0.305748
4.998172,0.307427
5.000823,0.309246
5.003474,0.311115
5.006122,0.312963
5.008769,0.314883
5.011415,0.316837
5.014059,0.318852
5.016702,0.320793
5.019343,0.322668
5.021982,0.324520
5.024620,0.326391
5.027256,0.328255
5.029891,0.330029
5.032524,0.331666
5.035156,0.333238
5.037787,0.334874
5.040415,0.336591
5.043043,0.338303
5.045668,0.340013
5.048292,0.341873
